Sample	 
Comments	 
Filename	G:\ceshi\20230223\wangjun410-03.22\cnt-fe3o4_Theta_2-Theta.raw

Goniometer	MiniFlex 300/600
Attachment	Air-sensitive Sample Holder
Monochromater	None

X	0
Y	0
Z	0
10	600
10.02	600
10.04	450
10.06	525
10.08	675
10.1	225
10.12	525
10.14	525
10.16	300
10.18	450
10.2	150
10.22	300
10.24	450
10.26	300
10.28	600
10.3	675
10.32	600
10.34	750
10.36	525
10.38	300
10.4	225
10.42	375
10.44	600
10.46	150
10.48	225
10.5	600
10.52	975
10.54	675
10.56	600
10.58	225
10.6	225
10.62	225
10.64	300
10.66	750
10.68	75
10.7	300
10.72	300
10.74	525
10.76	375
10.78	525
10.8	450
10.82	375
10.84	225
10.86	225
10.88	225
10.9	150
10.92	300
10.94	375
10.96	600
10.98	525
11	975
11.02	525
11.04	300
11.06	450
11.08	450
11.1	375
11.12	150
11.14	750
11.16	450
11.18	600
11.2	300
11.22	525
11.24	225
11.26	300
11.28	375
11.3	450
11.32	525
11.34	525
11.36	375
11.38	225
11.4	375
11.42	450
11.44	675
11.46	675
11.48	450
11.5	600
11.52	750
11.54	450
11.56	450
11.58	450
11.6	600
11.62	675
11.64	525
11.66	525
11.68	375
11.7	750
11.72	450
11.74	675
11.76	375
11.78	300
11.8	225
11.82	450
11.84	525
11.86	600
11.88	450
11.9	375
11.92	300
11.94	600
11.96	150
11.98	525
12	750
12.02	300
12.04	525
12.06	600
12.08	450
12.1	300
12.12	300
12.14	450
12.16	525
12.18	375
12.2	375
12.22	525
12.24	300
12.26	300
12.28	600
12.3	825
12.32	525
12.34	450
12.36	675
12.38	375
12.4	525
12.42	225
12.44	300
12.46	525
12.48	600
12.5	300
12.52	375
12.54	150
12.56	825
12.58	675
12.6	375
12.62	225
12.64	225
12.66	375
12.68	525
12.7	225
12.72	450
12.74	675
12.76	300
12.78	225
12.8	225
12.82	525
12.84	675
12.86	675
12.88	675
12.9	525
12.92	300
12.94	150
12.96	450
12.98	525
13	375
13.02	900
13.04	675
13.06	675
13.08	450
13.1	600
13.12	600
13.14	525
13.16	300
13.18	300
13.2	375
13.22	750
13.24	750
13.26	450
13.28	375
13.3	600
13.32	300
13.34	300
13.36	375
13.38	600
13.4	600
13.42	525
13.44	525
13.46	600
13.48	675
13.5	450
13.52	450
13.54	375
13.56	525
13.58	600
13.6	375
13.62	675
13.64	300
13.66	375
13.68	450
13.7	300
13.72	600
13.74	450
13.76	450
13.78	525
13.8	750
13.82	675
13.84	375
13.86	825
13.88	1050
13.9	225
13.92	300
13.94	675
13.96	450
13.98	375
14	450
14.02	375
14.04	450
14.06	225
14.08	525
14.1	600
14.12	375
14.14	525
14.16	750
14.18	750
14.2	525
14.22	525
14.24	375
14.26	225
14.28	675
14.3	675
14.32	600
14.34	900
14.36	750
14.38	150
14.4	150
14.42	375
14.44	450
14.46	450
14.48	450
14.5	600
14.52	600
14.54	900
14.56	525
14.58	825
14.6	900
14.62	600
14.64	675
14.66	900
14.68	975
14.7	450
14.72	150
14.74	300
14.76	450
14.78	450
14.8	375
14.82	600
14.84	525
14.86	525
14.88	450
14.9	675
14.92	300
14.94	300
14.96	375
14.98	375
15	525
15.02	675
15.04	450
15.06	900
15.08	675
15.1	600
15.12	450
15.14	450
15.16	825
15.18	450
15.2	450
15.22	525
15.24	375
15.26	675
15.28	675
15.3	600
15.32	450
15.34	750
15.36	375
15.38	450
15.4	900
15.42	525
15.44	1125
15.46	825
15.48	825
15.5	675
15.52	375
15.54	900
15.56	1200
15.58	750
15.6	300
15.62	1050
15.64	975
15.66	750
15.68	675
15.7	375
15.72	675
15.74	525
15.76	450
15.78	525
15.8	450
15.82	600
15.84	600
15.86	450
15.88	600
15.9	375
15.92	675
15.94	375
15.96	525
15.98	525
16	525
16.02	675
16.04	900
16.06	675
16.08	750
16.1	750
16.12	825
16.14	975
16.16	675
16.18	600
16.2	600
16.22	825
16.24	450
16.26	825
16.28	825
16.3	525
16.32	975
16.34	675
16.36	825
16.38	825
16.4	750
16.42	750
16.44	450
16.46	0
16.48	225
16.5	975
16.52	900
16.54	600
16.56	375
16.58	1050
16.6	675
16.62	825
16.64	225
16.66	525
16.68	600
16.7	525
16.72	825
16.74	750
16.76	750
16.78	975
16.8	525
16.82	975
16.84	1200
16.86	375
16.88	600
16.9	525
16.92	675
16.94	525
16.96	825
16.98	750
17	825
17.02	525
17.04	975
17.06	825
17.08	1050
17.1	675
17.12	825
17.14	675
17.16	675
17.18	900
17.2	975
17.22	675
17.24	1050
17.26	1650
17.28	825
17.3	825
17.32	1200
17.34	675
17.36	825
17.38	675
17.4	1275
17.42	600
17.44	600
17.46	525
17.48	750
17.5	600
17.52	825
17.54	750
17.56	750
17.58	750
17.6	750
17.62	600
17.64	750
17.66	525
17.68	900
17.7	1275
17.72	750
17.74	1200
17.76	900
17.78	675
17.8	975
17.82	675
17.84	525
17.86	900
17.88	825
17.9	825
17.92	600
17.94	675
17.96	1275
17.98	1425
18	975
18.02	600
18.04	750
18.06	675
18.08	975
18.1	900
18.12	1125
18.14	1125
18.16	750
18.18	900
18.2	900
18.22	1500
18.24	1350
18.26	1200
18.28	1200
18.3	600
18.32	675
18.34	750
18.36	675
18.38	600
18.4	1050
18.42	750
18.44	975
18.46	825
18.48	1500
18.5	1275
18.52	1350
18.54	1575
18.56	1200
18.58	1050
18.6	1125
18.62	1125
18.64	1425
18.66	1050
18.68	1050
18.7	1125
18.72	975
18.74	1275
18.76	675
18.78	1425
18.8	1350
18.82	1050
18.84	1425
18.86	1050
18.88	1425
18.9	1275
18.92	900
18.94	1500
18.96	1050
18.98	975
19	900
19.02	900
19.04	825
19.06	975
19.08	1125
19.1	1275
19.12	1125
19.14	1275
19.16	2025
19.18	1575
19.2	1275
19.22	1500
19.24	1425
19.26	1200
19.28	1575
19.3	825
19.32	900
19.34	1200
19.36	1125
19.38	1275
19.4	1425
19.42	1725
19.44	1275
19.46	1500
19.48	1575
19.5	1275
19.52	1125
19.54	1050
19.56	1350
19.58	975
19.6	1275
19.62	1725
19.64	1350
19.66	1200
19.68	1500
19.7	1950
19.72	1275
19.74	1275
19.76	1500
19.78	1050
19.8	1725
19.82	1200
19.84	1275
19.86	1425
19.88	1275
19.9	900
19.92	1050
19.94	1125
19.96	1200
19.98	1125
20	1500
20.02	1350
20.04	1275
20.06	1650
20.08	1125
20.1	2100
20.12	1200
20.14	975
20.16	1050
20.18	1050
20.2	1575
20.22	1425
20.24	1275
20.26	1575
20.28	1350
20.3	1500
20.32	2625
20.34	1500
20.36	1500
20.38	1275
20.4	2625
20.42	825
20.44	1200
20.46	1125
20.48	1200
20.5	1950
20.52	1275
20.54	2100
20.56	2100
20.58	1350
20.6	1050
20.62	1500
20.64	1275
20.66	1725
20.68	1800
20.7	1425
20.72	1800
20.74	1725
20.76	1200
20.78	2325
20.8	1725
20.82	1575
20.84	1875
20.86	1200
20.88	1200
20.9	1125
20.92	1050
20.94	1200
20.96	1725
20.98	1425
21	1875
21.02	1200
21.04	1800
21.06	1800
21.08	1575
21.1	1800
21.12	1650
21.14	1575
21.16	1350
21.18	1575
21.2	1200
21.22	2100
21.24	1800
21.26	1350
21.28	1425
21.3	1350
21.32	1800
21.34	2100
21.36	1350
21.38	675
21.4	900
21.42	1575
21.44	1575
21.46	1875
21.48	1350
21.5	1350
21.52	1575
21.54	1800
21.56	1200
21.58	675
21.6	975
21.62	900
21.64	750
21.66	600
21.68	1950
21.7	1500
21.72	1125
21.74	1350
21.76	1950
21.78	1650
21.8	2025
21.82	1575
21.84	1050
21.86	1425
21.88	1800
21.9	1650
21.92	1125
21.94	1650
21.96	1425
21.98	1650
22	1725
22.02	1050
22.04	1650
22.06	1125
22.08	1200
22.1	1125
22.12	900
22.14	2100
22.16	1425
22.18	1575
22.2	1575
22.22	1275
22.24	1425
22.26	1725
22.28	2175
22.3	1500
22.32	1575
22.34	1275
22.36	1050
22.38	1125
22.4	1425
22.42	2175
22.44	1650
22.46	1575
22.48	1350
22.5	825
22.52	1350
22.54	1050
22.56	900
22.58	975
22.6	975
22.62	1350
22.64	1650
22.66	1200
22.68	1650
22.7	1575
22.72	1650
22.74	2100
22.76	1650
22.78	2025
22.8	2175
22.82	1125
22.84	1200
22.86	1950
22.88	1725
22.9	1350
22.92	1950
22.94	1200
22.96	1875
22.98	1800
23	2025
23.02	2550
23.04	1875
23.06	1725
23.08	2700
23.1	2100
23.12	2775
23.14	2625
23.16	2925
23.18	3750
23.2	3675
23.22	3375
23.24	2325
23.26	2550
23.28	2325
23.3	1575
23.32	1500
23.34	1650
23.36	1575
23.38	1500
23.4	1275
23.42	1425
23.44	975
23.46	1125
23.48	1125
23.5	1350
23.52	1575
23.54	1350
23.56	1125
23.58	1125
23.6	975
23.62	1500
23.64	1275
23.66	1200
23.68	1050
23.7	1500
23.72	1800
23.74	1200
23.76	1125
23.78	1725
23.8	1575
23.82	1425
23.84	1575
23.86	1350
23.88	975
23.9	1275
23.92	1275
23.94	1350
23.96	1200
23.98	1050
24	1275
24.02	1875
24.04	1050
24.06	975
24.08	1200
24.1	1275
24.12	1500
24.14	1350
24.16	1425
24.18	1125
24.2	750
24.22	1275
24.24	975
24.26	1275
24.28	1350
24.3	1575
24.32	1650
24.34	1200
24.36	1125
24.38	1575
24.4	1575
24.42	1275
24.44	1350
24.46	1200
24.48	750
24.5	825
24.52	825
24.54	600
24.56	900
24.58	675
24.6	750
24.62	675
24.64	1350
24.66	1050
24.68	1050
24.7	825
24.72	1200
24.74	1125
24.76	1050
24.78	825
24.8	1200
24.82	1125
24.84	1200
24.86	1050
24.88	750
24.9	900
24.92	1050
24.94	825
24.96	1050
24.98	900
25	1650
25.02	900
25.04	1125
25.06	1125
25.08	1275
25.1	1125
25.12	1200
25.14	1125
25.16	975
25.18	1050
25.2	1050
25.22	825
25.24	900
25.26	900
25.28	1350
25.3	1050
25.32	1050
25.34	975
25.36	1275
25.38	1350
25.4	750
25.42	825
25.44	825
25.46	900
25.48	1125
25.5	600
25.52	1425
25.54	975
25.56	825
25.58	1050
25.6	1125
25.62	1050
25.64	675
25.66	825
25.68	1275
25.7	1500
25.72	750
25.74	1050
25.76	1575
25.78	1350
25.8	1125
25.82	1125
25.84	1125
25.86	1050
25.88	1350
25.9	1125
25.92	1875
25.94	1800
25.96	1500
25.98	2400
26	2175
26.02	1950
26.04	1125
26.06	750
26.08	1275
26.1	1200
26.12	1050
26.14	1125
26.16	825
26.18	1050
26.2	750
26.22	600
26.24	825
26.26	900
26.28	1275
26.3	750
26.32	750
26.34	1125
26.36	900
26.38	975
26.4	1200
26.42	975
26.44	750
26.46	675
26.48	525
26.5	900
26.52	1200
26.54	1650
26.56	825
26.58	675
26.6	975
26.62	900
26.64	825
26.66	600
26.68	825
26.7	1275
26.72	900
26.74	975
26.76	1125
26.78	1425
26.8	975
26.82	1050
26.84	1425
26.86	1650
26.88	1575
26.9	900
26.92	750
26.94	825
26.96	1650
26.98	975
27	750
27.02	900
27.04	1425
27.06	1425
27.08	1050
27.1	900
27.12	975
27.14	450
27.16	750
27.18	900
27.2	1200
27.22	900
27.24	825
27.26	975
27.28	750
27.3	825
27.32	750
27.34	825
27.36	900
27.38	825
27.4	825
27.42	1050
27.44	750
27.46	975
27.48	675
27.5	750
27.52	525
27.54	975
27.56	825
27.58	750
27.6	1125
27.62	600
27.64	900
27.66	1350
27.68	1500
27.7	1425
27.72	600
27.74	1050
27.76	2550
27.78	2100
27.8	2100
27.82	1050
27.84	1650
27.86	1575
27.88	1200
27.9	1950
27.92	1425
27.94	1275
27.96	1350
27.98	675
28	600
28.02	300
28.04	600
28.06	1275
28.08	675
28.1	750
28.12	675
28.14	750
28.16	1125
28.18	825
28.2	900
28.22	1350
28.24	1275
28.26	1125
28.28	825
28.3	600
28.32	975
28.34	825
28.36	675
28.38	1050
28.4	825
28.42	975
28.44	1200
28.46	675
28.48	375
28.5	750
28.52	1050
28.54	900
28.56	1050
28.58	1125
28.6	900
28.62	675
28.64	750
28.66	900
28.68	1125
28.7	1125
28.72	1125
28.74	825
28.76	825
28.78	975
28.8	900
28.82	900
28.84	900
28.86	975
28.88	750
28.9	675
28.92	825
28.94	900
28.96	1125
28.98	900
29	1200
29.02	1050
29.04	1050
29.06	975
29.08	375
29.1	825
29.12	1425
29.14	825
29.16	900
29.18	1050
29.2	1050
29.22	825
29.24	825
29.26	750
29.28	975
29.3	900
29.32	750
29.34	525
29.36	375
29.38	825
29.4	825
29.42	450
29.44	900
29.46	450
29.48	750
29.5	600
29.52	525
29.54	525
29.56	825
29.58	375
29.6	525
29.62	600
29.64	750
29.66	975
29.68	975
29.7	825
29.72	450
29.74	450
29.76	525
29.78	600
29.8	750
29.82	600
29.84	600
29.86	525
29.88	375
29.9	750
29.92	825
29.94	375
29.96	600
29.98	900
30	1050
30.02	750
30.04	900
30.06	450
30.08	375
30.1	600
30.12	675
30.14	675
30.16	675
30.18	825
30.2	825
30.22	900
30.24	675
30.26	675
30.28	675
30.3	900
30.32	900
30.34	600
30.36	525
30.38	675
30.4	525
30.42	750
30.44	675
30.46	825
30.48	750
30.5	675
30.52	300
30.54	375
30.56	750
30.58	300
30.6	975
30.62	750
30.64	675
30.66	675
30.68	675
30.7	675
30.72	525
30.74	750
30.76	525
30.78	675
30.8	450
30.82	750
30.84	600
30.86	600
30.88	300
30.9	150
30.92	975
30.94	900
30.96	675
30.98	600
31	1125
31.02	750
31.04	450
31.06	375
31.08	525
31.1	600
31.12	225
31.14	450
31.16	600
31.18	975
31.2	675
31.22	750
31.24	525
31.26	1275
31.28	900
31.3	450
31.32	600
31.34	675
31.36	600
31.38	825
31.4	525
31.42	900
31.44	825
31.46	450
31.48	975
31.5	1275
31.52	750
31.54	450
31.56	600
31.58	1050
31.6	900
31.62	825
31.64	750
31.66	675
31.68	675
31.7	375
31.72	675
31.74	750
31.76	675
31.78	600
31.8	675
31.82	450
31.84	375
31.86	375
31.88	600
31.9	450
31.92	375
31.94	600
31.96	600
31.98	600
32	525
32.02	1125
32.04	1050
32.06	750
32.08	675
32.1	675
32.12	825
32.14	600
32.16	375
32.18	825
32.2	600
32.22	750
32.24	450
32.26	600
32.28	525
32.3	450
32.32	375
32.34	750
32.36	525
32.38	75
32.4	375
32.42	525
32.44	450
32.46	600
32.48	525
32.5	600
32.52	450
32.54	675
32.56	300
32.58	600
32.6	375
32.62	600
32.64	525
32.66	150
32.68	525
32.7	750
32.72	975
32.74	225
32.76	375
32.78	450
32.8	450
32.82	525
32.84	525
32.86	600
32.88	525
32.9	825
32.92	600
32.94	375
32.96	975
32.98	900
33	825
33.02	975
33.04	975
33.06	900
33.08	675
33.1	525
33.12	750
33.14	750
33.16	975
33.18	600
33.2	525
33.22	825
33.24	600
33.26	975
33.28	600
33.3	825
33.32	750
33.34	300
33.36	675
33.38	675
33.4	525
33.42	450
33.44	525
33.46	525
33.48	675
33.5	900
33.52	600
33.54	450
33.56	525
33.58	225
33.6	450
33.62	450
33.64	450
33.66	600
33.68	375
33.7	375
33.72	150
33.74	300
33.76	525
33.78	750
33.8	375
33.82	450
33.84	600
33.86	525
33.88	825
33.9	600
33.92	450
33.94	825
33.96	675
33.98	375
34	750
34.02	675
34.04	675
34.06	450
34.08	225
34.1	450
34.12	375
34.14	300
34.16	675
34.18	825
34.2	600
34.22	750
34.24	825
34.26	375
34.28	450
34.3	375
34.32	525
34.34	1050
34.36	525
34.38	600
34.4	525
34.42	450
34.44	975
34.46	450
34.48	375
34.5	1050
34.52	525
34.54	525
34.56	525
34.58	750
34.6	900
34.62	1350
34.64	600
34.66	675
34.68	375
34.7	150
34.72	300
34.74	600
34.76	750
34.78	600
34.8	225
34.82	525
34.84	300
34.86	600
34.88	825
34.9	900
34.92	975
34.94	525
34.96	675
34.98	450
35	900
35.02	675
35.04	600
35.06	750
35.08	600
35.1	375
35.12	450
35.14	300
35.16	675
35.18	450
35.2	450
35.22	375
35.24	225
35.26	825
35.28	375
35.3	825
35.32	1125
35.34	525
35.36	975
35.38	525
35.4	600
35.42	675
35.44	750
35.46	600
35.48	825
35.5	600
35.52	525
35.54	825
35.56	450
35.58	300
35.6	300
35.62	525
35.64	975
35.66	1050
35.68	375
35.7	525
35.72	525
35.74	450
35.76	375
35.78	600
35.8	450
35.82	300
35.84	600
35.86	600
35.88	1050
35.9	900
35.92	525
35.94	900
35.96	975
35.98	525
36	525
36.02	375
36.04	750
36.06	1050
36.08	600
36.1	375
36.12	225
36.14	525
36.16	750
36.18	600
36.2	525
36.22	750
36.24	825
36.26	600
36.28	525
36.3	525
36.32	525
36.34	300
36.36	375
36.38	300
36.4	300
36.42	75
36.44	825
36.46	75
36.48	150
36.5	225
36.52	525
36.54	375
36.56	225
36.58	300
36.6	600
36.62	300
36.64	300
36.66	600
36.68	450
36.7	225
36.72	375
36.74	675
36.76	75
36.78	300
36.8	675
36.82	525
36.84	750
36.86	450
36.88	600
36.9	375
36.92	450
36.94	900
36.96	150
36.98	825
37	1050
37.02	450
37.04	900
37.06	1200
37.08	675
37.1	1200
37.12	375
37.14	675
37.16	375
37.18	225
37.2	225
37.22	450
37.24	375
37.26	525
37.28	375
37.3	300
37.32	675
37.34	300
37.36	300
37.38	600
37.4	750
37.42	300
37.44	375
37.46	300
37.48	300
37.5	375
37.52	150
37.54	750
37.56	375
37.58	225
37.6	675
37.62	300
37.64	600
37.66	825
37.68	750
37.7	750
37.72	450
37.74	450
37.76	450
37.78	675
37.8	675
37.82	450
37.84	525
37.86	600
37.88	450
37.9	375
37.92	675
37.94	600
37.96	675
37.98	375
38	900
38.02	825
38.04	525
38.06	750
38.08	300
38.1	600
38.12	450
38.14	450
38.16	675
38.18	750
38.2	375
38.22	450
38.24	300
38.26	150
38.28	300
38.3	300
38.32	450
38.34	300
38.36	225
38.38	525
38.4	150
38.42	375
38.44	600
38.46	375
38.48	450
38.5	675
38.52	750
38.54	225
38.56	150
38.58	150
38.6	375
38.62	150
38.64	675
38.66	750
38.68	750
38.7	150
38.72	225
38.74	75
38.76	150
38.78	375
38.8	225
38.82	300
38.84	600
38.86	450
38.88	150
38.9	75
38.92	225
38.94	450
38.96	300
38.98	600
39	300
39.02	450
39.04	450
39.06	600
39.08	375
39.1	525
39.12	300
39.14	300
39.16	600
39.18	450
39.2	300
39.22	225
39.24	450
39.26	375
39.28	300
39.3	450
39.32	75
39.34	300
39.36	450
39.38	750
39.4	600
39.42	375
39.44	300
39.46	450
39.48	300
39.5	450
39.52	375
39.54	750
39.56	450
39.58	225
39.6	300
39.62	525
39.64	675
39.66	300
39.68	600
39.7	300
39.72	225
39.74	600
39.76	375
39.78	375
39.8	150
39.82	375
39.84	675
39.86	975
39.88	450
39.9	600
39.92	300
39.94	450
39.96	375
39.98	450
40	150
40.02	150
40.04	375
40.06	525
40.08	450
40.1	300
40.12	375
40.14	225
40.16	150
40.18	675
40.2	600
40.22	525
40.24	375
40.26	225
40.28	225
40.3	150
40.32	450
40.34	150
40.36	300
40.38	450
40.4	150
40.42	225
40.44	450
40.46	375
40.48	300
40.5	375
40.52	675
40.54	525
40.56	750
40.58	600
40.6	300
40.62	375
40.64	450
40.66	300
40.68	525
40.7	525
40.72	450
40.74	525
40.76	300
40.78	375
40.8	225
40.82	525
40.84	300
40.86	525
40.88	225
40.9	225
40.92	75
40.94	0
40.96	225
40.98	450
41	375
41.02	300
41.04	750
41.06	600
41.08	825
41.1	450
41.12	600
41.14	525
41.16	600
41.18	150
41.2	375
41.22	825
41.24	150
41.26	225
41.28	450
41.3	75
41.32	300
41.34	300
41.36	525
41.38	300
41.4	300
41.42	450
41.44	600
41.46	225
41.48	375
41.5	75
41.52	225
41.54	300
41.56	450
41.58	375
41.6	375
41.62	525
41.64	225
41.66	300
41.68	300
41.7	300
41.72	300
41.74	525
41.76	525
41.78	225
41.8	450
41.82	450
41.84	225
41.86	75
41.88	600
41.9	450
41.92	450
41.94	600
41.96	375
41.98	450
42	450
42.02	375
42.04	375
42.06	375
42.08	600
42.1	225
42.12	375
42.14	750
42.16	525
42.18	150
42.2	525
42.22	375
42.24	375
42.26	300
42.28	300
42.3	225
42.32	300
42.34	450
42.36	450
42.38	375
42.4	900
42.42	750
42.44	600
42.46	525
42.48	525
42.5	375
42.52	375
42.54	525
42.56	450
42.58	825
42.6	675
42.62	825
42.64	375
42.66	525
42.68	450
42.7	375
42.72	900
42.74	525
42.76	600
42.78	600
42.8	600
42.82	750
42.84	525
42.86	600
42.88	600
42.9	300
42.92	525
42.94	600
42.96	600
42.98	375
43	300
43.02	525
43.04	75
43.06	525
43.08	300
43.1	450
43.12	150
43.14	225
43.16	375
43.18	75
43.2	225
43.22	450
43.24	600
43.26	600
43.28	300
43.3	375
43.32	375
43.34	450
43.36	300
43.38	375
43.4	600
43.42	300
43.44	375
43.46	525
43.48	75
43.5	225
43.52	375
43.54	375
43.56	375
43.58	300
43.6	300
43.62	225
43.64	525
43.66	150
43.68	450
43.7	225
43.72	75
43.74	450
43.76	450
43.78	375
43.8	450
43.82	450
43.84	75
43.86	450
43.88	600
43.9	375
43.92	450
43.94	225
43.96	225
43.98	450
44	225
44.02	375
44.04	375
44.06	450
44.08	450
44.1	375
44.12	600
44.14	525
44.16	675
44.18	300
44.2	375
44.22	300
44.24	525
44.26	375
44.28	150
44.3	150
44.32	450
44.34	600
44.36	300
44.38	75
44.4	300
44.42	525
44.44	675
44.46	675
44.48	750
44.5	225
44.52	375
44.54	525
44.56	525
44.58	150
44.6	300
44.62	225
44.64	225
44.66	375
44.68	375
44.7	525
44.72	300
44.74	300
44.76	300
44.78	300
44.8	150
44.82	525
44.84	300
44.86	300
44.88	450
44.9	375
44.92	450
44.94	600
44.96	225
44.98	525
45	300
45.02	75
45.04	375
45.06	450
45.08	375
45.1	150
45.12	225
45.14	675
45.16	525
45.18	450
45.2	600
45.22	150
45.24	375
45.26	525
45.28	450
45.3	450
45.32	750
45.34	600
45.36	300
45.38	450
45.4	225
45.42	0
45.44	600
45.46	675
45.48	525
45.5	525
45.52	450
45.54	450
45.56	525
45.58	300
45.6	150
45.62	450
45.64	825
45.66	525
45.68	225
45.7	75
45.72	525
45.74	600
45.76	225
45.78	450
45.8	300
45.82	450
45.84	150
45.86	150
45.88	300
45.9	150
45.92	450
45.94	375
45.96	375
45.98	300
46	675
46.02	600
46.04	150
46.06	450
46.08	450
46.1	225
46.12	375
46.14	225
46.16	450
46.18	375
46.2	600
46.22	450
46.24	600
46.26	300
46.28	375
46.3	150
46.32	375
46.34	450
46.36	225
46.38	675
46.4	450
46.42	525
46.44	225
46.46	450
46.48	375
46.5	225
46.52	300
46.54	375
46.56	300
46.58	225
46.6	375
46.62	300
46.64	375
46.66	300
46.68	600
46.7	525
46.72	450
46.74	375
46.76	300
46.78	150
46.8	450
46.82	450
46.84	0
46.86	300
46.88	300
46.9	225
46.92	75
46.94	300
46.96	525
46.98	150
47	225
47.02	600
47.04	675
47.06	150
47.08	450
47.1	450
47.12	450
47.14	300
47.16	375
47.18	300
47.2	525
47.22	150
47.24	75
47.26	750
47.28	525
47.3	675
47.32	525
47.34	600
47.36	525
47.38	225
47.4	225
47.42	600
47.44	375
47.46	300
47.48	375
47.5	225
47.52	525
47.54	825
47.56	600
47.58	525
47.6	225
47.62	225
47.64	525
47.66	375
47.68	525
47.7	300
47.72	225
47.74	450
47.76	150
47.78	675
47.8	450
47.82	750
47.84	300
47.86	525
47.88	375
47.9	375
47.92	525
47.94	450
47.96	225
47.98	375
48	375
48.02	675
48.04	375
48.06	600
48.08	225
48.1	300
48.12	300
48.14	525
48.16	375
48.18	750
48.2	150
48.22	375
48.24	525
48.26	300
48.28	225
48.3	0
48.32	225
48.34	600
48.36	450
48.38	600
48.4	375
48.42	300
48.44	150
48.46	450
48.48	525
48.5	675
48.52	600
48.54	300
48.56	450
48.58	675
48.6	300
48.62	375
48.64	300
48.66	225
48.68	300
48.7	525
48.72	675
48.74	675
48.76	600
48.78	300
48.8	300
48.82	300
48.84	675
48.86	225
48.88	375
48.9	450
48.92	525
48.94	225
48.96	300
48.98	375
49	300
49.02	675
49.04	375
49.06	225
49.08	525
49.1	300
49.12	450
49.14	450
49.16	75
49.18	225
49.2	300
49.22	300
49.24	825
49.26	450
49.28	300
49.3	300
49.32	225
49.34	600
49.36	525
49.38	675
49.4	450
49.42	225
49.44	225
49.46	150
49.48	225
49.5	225
49.52	825
49.54	600
49.56	375
49.58	825
49.6	300
49.62	450
49.64	300
49.66	450
49.68	450
49.7	225
49.72	600
49.74	675
49.76	525
49.78	750
49.8	600
49.82	225
49.84	225
49.86	525
49.88	375
49.9	375
49.92	600
49.94	450
49.96	300
49.98	225
50	375
50.02	825
50.04	450
50.06	375
50.08	375
50.1	150
50.12	225
50.14	375
50.16	300
50.18	375
50.2	300
50.22	300
50.24	375
50.26	525
50.28	225
50.3	300
50.32	675
50.34	600
50.36	225
50.38	375
50.4	525
50.42	225
50.44	225
50.46	225
50.48	150
50.5	375
50.52	300
50.54	525
50.56	375
50.58	300
50.6	375
50.62	225
50.64	450
50.66	375
50.68	600
50.7	375
50.72	450
50.74	150
50.76	225
50.78	225
50.8	150
50.82	375
50.84	375
50.86	375
50.88	150
50.9	300
50.92	150
50.94	525
50.96	225
50.98	600
51	525
51.02	450
51.04	375
51.06	150
51.08	375
51.1	450
51.12	300
51.14	600
51.16	300
51.18	450
51.2	675
51.22	450
51.24	450
51.26	600
51.28	525
51.3	450
51.32	750
51.34	375
51.36	150
51.38	300
51.4	225
51.42	300
51.44	225
51.46	225
51.48	150
51.5	300
51.52	225
51.54	150
51.56	300
51.58	300
51.6	525
51.62	450
51.64	450
51.66	300
51.68	375
51.7	525
51.72	300
51.74	525
51.76	525
51.78	450
51.8	225
51.82	150
51.84	375
51.86	225
51.88	150
51.9	375
51.92	675
51.94	525
51.96	225
51.98	75
52	0
52.02	75
52.04	150
52.06	300
52.08	450
52.1	450
52.12	600
52.14	375
52.16	375
52.18	675
52.2	525
52.22	300
52.24	450
52.26	225
52.28	150
52.3	450
52.32	600
52.34	300
52.36	450
52.38	300
52.4	825
52.42	375
52.44	375
52.46	450
52.48	375
52.5	225
52.52	375
52.54	150
52.56	300
52.58	450
52.6	375
52.62	525
52.64	525
52.66	525
52.68	675
52.7	375
52.72	300
52.74	0
52.76	150
52.78	225
52.8	300
52.82	225
52.84	300
52.86	450
52.88	375
52.9	375
52.92	150
52.94	300
52.96	375
52.98	300
53	300
53.02	600
53.04	450
53.06	825
53.08	975
53.1	825
53.12	600
53.14	525
53.16	450
53.18	525
53.2	600
53.22	225
53.24	300
53.26	525
53.28	225
53.3	150
53.32	225
53.34	150
53.36	300
53.38	525
53.4	375
53.42	450
53.44	375
53.46	225
53.48	900
53.5	525
53.52	375
53.54	450
53.56	375
53.58	300
53.6	150
53.62	375
53.64	375
53.66	300
53.68	450
53.7	525
53.72	450
53.74	300
53.76	300
53.78	150
53.8	300
53.82	300
53.84	225
53.86	150
53.88	300
53.9	375
53.92	750
53.94	450
53.96	300
53.98	375
54	375
54.02	300
54.04	450
54.06	600
54.08	525
54.1	525
54.12	300
54.14	150
54.16	300
54.18	300
54.2	450
54.22	225
54.24	375
54.26	375
54.28	0
54.3	525
54.32	525
54.34	150
54.36	300
54.38	675
54.4	150
54.42	150
54.44	225
54.46	525
54.48	375
54.5	375
54.52	525
54.54	600
54.56	225
54.58	300
54.6	75
54.62	375
54.64	300
54.66	150
54.68	375
54.7	450
54.72	75
54.74	225
54.76	450
54.78	375
54.8	225
54.82	450
54.84	0
54.86	225
54.88	225
54.9	375
54.92	450
54.94	300
54.96	300
54.98	300
55	150
55.02	450
55.04	150
55.06	150
55.08	525
55.1	450
55.12	600
55.14	75
55.16	600
55.18	450
55.2	300
55.22	300
55.24	375
55.26	375
55.28	375
55.3	675
55.32	300
55.34	300
55.36	450
55.38	525
55.4	300
55.42	525
55.44	150
55.46	300
55.48	525
55.5	600
55.52	375
55.54	300
55.56	300
55.58	600
55.6	825
55.62	450
55.64	750
55.66	300
55.68	225
55.7	375
55.72	75
55.74	450
55.76	600
55.78	450
55.8	150
55.82	450
55.84	75
55.86	75
55.88	150
55.9	75
55.92	75
55.94	300
55.96	300
55.98	300
56	375
56.02	525
56.04	450
56.06	225
56.08	225
56.1	300
56.12	150
56.14	150
56.16	150
56.18	150
56.2	225
56.22	375
56.24	300
56.26	375
56.28	375
56.3	375
56.32	300
56.34	450
56.36	450
56.38	450
56.4	75
56.42	375
56.44	225
56.46	75
56.48	375
56.5	300
56.52	225
56.54	150
56.56	150
56.58	600
56.6	600
56.62	375
56.64	375
56.66	300
56.68	525
56.7	525
56.72	525
56.74	300
56.76	675
56.78	375
56.8	525
56.82	675
56.84	300
56.86	300
56.88	525
56.9	225
56.92	375
56.94	525
56.96	225
56.98	375
57	450
57.02	375
57.04	300
57.06	600
57.08	750
57.1	750
57.12	375
57.14	300
57.16	975
57.18	525
57.2	375
57.22	450
57.24	225
57.26	450
57.28	525
57.3	300
57.32	300
57.34	300
57.36	300
57.38	225
57.4	150
57.42	450
57.44	225
57.46	225
57.48	375
57.5	375
57.52	300
57.54	450
57.56	600
57.58	225
57.6	75
57.62	225
57.64	450
57.66	225
57.68	300
57.7	450
57.72	450
57.74	300
57.76	225
57.78	150
57.8	225
57.82	375
57.84	375
57.86	300
57.88	150
57.9	450
57.92	450
57.94	450
57.96	300
57.98	375
58	375
58.02	150
58.04	375
58.06	300
58.08	375
58.1	225
58.12	225
58.14	525
58.16	225
58.18	675
58.2	525
58.22	525
58.24	375
58.26	225
58.28	225
58.3	375
58.32	225
58.34	375
58.36	450
58.38	150
58.4	225
58.42	300
58.44	450
58.46	375
58.48	300
58.5	450
58.52	525
58.54	375
58.56	300
58.58	750
58.6	225
58.62	375
58.64	375
58.66	300
58.68	150
58.7	375
58.72	525
58.74	450
58.76	375
58.78	375
58.8	225
58.82	150
58.84	450
58.86	375
58.88	150
58.9	75
58.92	525
58.94	525
58.96	450
58.98	300
59	225
59.02	525
59.04	750
59.06	525
59.08	300
59.1	375
59.12	225
59.14	300
59.16	75
59.18	75
59.2	450
59.22	525
59.24	675
59.26	375
59.28	150
59.3	450
59.32	525
59.34	525
59.36	300
59.38	300
59.4	525
59.42	375
59.44	300
59.46	225
59.48	150
59.5	150
59.52	150
59.54	225
59.56	300
59.58	375
59.6	375
59.62	375
59.64	150
59.66	225
59.68	450
59.7	300
59.72	225
59.74	75
59.76	375
59.78	300
59.8	375
59.82	825
59.84	600
59.86	225
59.88	450
59.9	525
59.92	450
59.94	225
59.96	375
59.98	600
60	600
60.02	300
60.04	300
60.06	150
60.08	75
60.1	450
60.12	300
60.14	225
60.16	300
60.18	525
60.2	375
60.22	375
60.24	300
60.26	600
60.28	150
60.3	375
60.32	225
60.34	150
60.36	75
60.38	525
60.4	300
60.42	600
60.44	225
60.46	0
60.48	150
60.5	375
60.52	375
60.54	525
60.56	450
60.58	225
60.6	225
60.62	600
60.64	375
60.66	375
60.68	375
60.7	300
60.72	225
60.74	300
60.76	375
60.78	375
60.8	450
60.82	300
60.84	375
60.86	225
60.88	300
60.9	300
60.92	450
60.94	450
60.96	525
60.98	375
61	300
61.02	375
61.04	225
61.06	225
61.08	375
61.1	450
61.12	525
61.14	525
61.16	300
61.18	450
61.2	525
61.22	225
61.24	225
61.26	150
61.28	75
61.3	300
61.32	450
61.34	375
61.36	450
61.38	300
61.4	300
61.42	75
61.44	450
61.46	600
61.48	525
61.5	300
61.52	225
61.54	225
61.56	525
61.58	450
61.6	675
61.62	675
61.64	900
61.66	750
61.68	525
61.7	375
61.72	150
61.74	450
61.76	450
61.78	375
61.8	450
61.82	450
61.84	525
61.86	450
61.88	675
61.9	525
61.92	525
61.94	600
61.96	525
61.98	375
62	300
62.02	675
62.04	600
62.06	525
62.08	525
62.1	450
62.12	450
62.14	375
62.16	75
62.18	450
62.2	225
62.22	525
62.24	600
62.26	300
62.28	150
62.3	225
62.32	225
62.34	0
62.36	300
62.38	300
62.4	525
62.42	450
62.44	600
62.46	600
62.48	300
62.5	450
62.52	450
62.54	675
62.56	675
62.58	300
62.6	225
62.62	450
62.64	600
62.66	675
62.68	750
62.7	300
62.72	225
62.74	450
62.76	600
62.78	450
62.8	150
62.82	300
62.84	300
62.86	525
62.88	300
62.9	375
62.92	375
62.94	375
62.96	225
62.98	375
63	600
63.02	225
63.04	75
63.06	450
63.08	300
63.1	525
63.12	375
63.14	300
63.16	600
63.18	525
63.2	375
63.22	300
63.24	300
63.26	300
63.28	450
63.3	150
63.32	525
63.34	150
63.36	300
63.38	525
63.4	375
63.42	150
63.44	75
63.46	300
63.48	300
63.5	525
63.52	450
63.54	675
63.56	300
63.58	375
63.6	225
63.62	750
63.64	750
63.66	300
63.68	375
63.7	525
63.72	450
63.74	450
63.76	300
63.78	150
63.8	225
63.82	450
63.84	225
63.86	600
63.88	300
63.9	450
63.92	225
63.94	375
63.96	300
63.98	375
64	375
64.02	300
64.04	375
64.06	600
64.08	450
64.1	225
64.12	375
64.14	600
64.16	225
64.18	225
64.2	300
64.22	225
64.24	75
64.26	150
64.28	525
64.3	450
64.32	300
64.34	300
64.36	450
64.38	75
64.4	150
64.42	450
64.44	225
64.46	450
64.48	375
64.5	675
64.52	375
64.54	300
64.56	375
64.58	300
64.6	375
64.62	225
64.64	225
64.66	300
64.68	525
64.7	375
64.72	225
64.74	225
64.76	225
64.78	225
64.8	375
64.82	675
64.84	600
64.86	375
64.88	225
64.9	375
64.92	450
64.94	525
64.96	75
64.98	375
65	300
65.02	225
65.04	375
65.06	375
65.08	225
65.1	225
65.12	150
65.14	375
65.16	450
65.18	150
65.2	300
65.22	300
65.24	375
65.26	375
65.28	750
65.3	450
65.32	750
65.34	450
65.36	750
65.38	300
65.4	225
65.42	375
65.44	450
65.46	300
65.48	300
65.5	300
65.52	450
65.54	375
65.56	375
65.58	450
65.6	150
65.62	375
65.64	600
65.66	525
65.68	450
65.7	300
65.72	600
65.74	675
65.76	525
65.78	375
65.8	225
65.82	225
65.84	300
65.86	450
65.88	525
65.9	300
65.92	600
65.94	225
65.96	75
65.98	225
66	150
66.02	450
66.04	300
66.06	375
66.08	150
66.1	150
66.12	300
66.14	450
66.16	600
66.18	375
66.2	375
66.22	450
66.24	300
66.26	375
66.28	225
66.3	525
66.32	300
66.34	375
66.36	525
66.38	525
66.4	450
66.42	150
66.44	375
66.46	600
66.48	150
66.5	375
66.52	525
66.54	600
66.56	600
66.58	675
66.6	300
66.62	150
66.64	300
66.66	225
66.68	300
66.7	375
66.72	750
66.74	300
66.76	225
66.78	450
66.8	150
66.82	150
66.84	450
66.86	375
66.88	225
66.9	525
66.92	225
66.94	300
66.96	225
66.98	225
67	375
67.02	300
67.04	225
67.06	225
67.08	525
67.1	600
67.12	150
67.14	300
67.16	150
67.18	300
67.2	225
67.22	300
67.24	150
67.26	150
67.28	300
67.3	300
67.32	375
67.34	225
67.36	300
67.38	150
67.4	600
67.42	600
67.44	600
67.46	300
67.48	150
67.5	300
67.52	150
67.54	375
67.56	75
67.58	300
67.6	225
67.62	450
67.64	525
67.66	825
67.68	450
67.7	150
67.72	75
67.74	150
67.76	600
67.78	675
67.8	300
67.82	450
67.84	525
67.86	300
67.88	525
67.9	675
67.92	450
67.94	375
67.96	525
67.98	300
68	375
68.02	375
68.04	450
68.06	375
68.08	300
68.1	375
68.12	525
68.14	300
68.16	150
68.18	75
68.2	150
68.22	450
68.24	525
68.26	225
68.28	225
68.3	150
68.32	300
68.34	225
68.36	450
68.38	225
68.4	225
68.42	525
68.44	150
68.46	450
68.48	225
68.5	525
68.52	300
68.54	525
68.56	225
68.58	525
68.6	525
68.62	225
68.64	225
68.66	225
68.68	375
68.7	525
68.72	525
68.74	225
68.76	450
68.78	450
68.8	300
68.82	300
68.84	225
68.86	225
68.88	225
68.9	75
68.92	300
68.94	300
68.96	300
68.98	375
69	450
69.02	675
69.04	375
69.06	375
69.08	225
69.1	300
69.12	225
69.14	225
69.16	825
69.18	525
69.2	375
69.22	300
69.24	525
69.26	300
69.28	450
69.3	375
69.32	375
69.34	525
69.36	900
69.38	150
69.4	0
69.42	375
69.44	0
69.46	450
69.48	300
69.5	150
69.52	75
69.54	150
69.56	375
69.58	225
69.6	675
69.62	375
69.64	150
69.66	300
69.68	450
69.7	525
69.72	75
69.74	150
69.76	300
69.78	150
69.8	225
69.82	300
69.84	675
69.86	525
69.88	750
69.9	300
69.92	300
69.94	600
69.96	750
69.98	825
70	375
70.02	300
70.04	225
70.06	300
70.08	150
70.1	375
70.12	300
70.14	300
70.16	300
70.18	300
70.2	450
70.22	525
70.24	450
70.26	525
70.28	150
70.3	225
70.32	450
70.34	75
70.36	150
70.38	300
70.4	225
70.42	75
70.44	300
70.46	300
70.48	75
70.5	300
70.52	300
70.54	450
70.56	0
70.58	225
70.6	75
70.62	150
70.64	300
70.66	675
70.68	300
70.7	225
70.72	675
70.74	525
70.76	450
70.78	525
70.8	375
70.82	300
70.84	750
70.86	75
70.88	225
70.9	300
70.92	300
70.94	300
70.96	75
70.98	375
71	450
71.02	300
71.04	300
71.06	525
71.08	375
71.1	525
71.12	225
71.14	375
71.16	300
71.18	525
71.2	225
71.22	225
71.24	300
71.26	150
71.28	450
71.3	225
71.32	450
71.34	450
71.36	525
71.38	675
71.4	375
71.42	150
71.44	150
71.46	225
71.48	300
71.5	375
71.52	600
71.54	375
71.56	375
71.58	525
71.6	525
71.62	150
71.64	225
71.66	300
71.68	225
71.7	375
71.72	150
71.74	450
71.76	525
71.78	375
71.8	525
71.82	450
71.84	300
71.86	300
71.88	525
71.9	525
71.92	450
71.94	825
71.96	375
71.98	675
72	900
72.02	525
72.04	225
72.06	225
72.08	300
72.1	600
72.12	450
72.14	225
72.16	300
72.18	525
72.2	150
72.22	300
72.24	225
72.26	300
72.28	300
72.3	150
72.32	75
72.34	450
72.36	525
72.38	75
72.4	0
72.42	225
72.44	225
72.46	525
72.48	525
72.5	150
72.52	600
72.54	375
72.56	150
72.58	0
72.6	375
72.62	450
72.64	225
72.66	225
72.68	375
72.7	225
72.72	675
72.74	525
72.76	225
72.78	75
72.8	0
72.82	150
72.84	450
72.86	300
72.88	300
72.9	675
72.92	300
72.94	450
72.96	300
72.98	225
73	300
73.02	150
73.04	375
73.06	375
73.08	225
73.1	375
73.12	75
73.14	75
73.16	375
73.18	600
73.2	225
73.22	75
73.24	525
73.26	450
73.28	450
73.3	300
73.32	450
73.34	375
73.36	375
73.38	225
73.4	300
73.42	375
73.44	375
73.46	300
73.48	375
73.5	675
73.52	450
73.54	300
73.56	600
73.58	300
73.6	600
73.62	525
73.64	675
73.66	300
73.68	525
73.7	375
73.72	450
73.74	375
73.76	300
73.78	150
73.8	300
73.82	525
73.84	375
73.86	225
73.88	0
73.9	75
73.92	75
73.94	450
73.96	225
73.98	300
74	300
74.02	525
74.04	450
74.06	300
74.08	150
74.1	300
74.12	150
74.14	750
74.16	150
74.18	225
74.2	450
74.22	150
74.24	600
74.26	750
74.28	150
74.3	225
74.32	375
74.34	450
74.36	300
74.38	300
74.4	225
74.42	375
74.44	225
74.46	375
74.48	225
74.5	225
74.52	225
74.54	300
74.56	300
74.58	450
74.6	150
74.62	300
74.64	300
74.66	225
74.68	225
74.7	450
74.72	450
74.74	75
74.76	300
74.78	225
74.8	375
74.82	300
74.84	150
74.86	225
74.88	225
74.9	300
74.92	375
74.94	225
74.96	375
74.98	375
75	150
75.02	75
75.04	525
75.06	375
75.08	525
75.1	300
75.12	300
75.14	300
75.16	525
75.18	375
75.2	375
75.22	150
75.24	300
75.26	450
75.28	375
75.3	450
75.32	300
75.34	525
75.36	525
75.38	225
75.4	0
75.42	450
75.44	225
75.46	225
75.48	150
75.5	150
75.52	375
75.54	225
75.56	750
75.58	525
75.6	375
75.62	300
75.64	150
75.66	300
75.68	300
75.7	225
75.72	525
75.74	225
75.76	150
75.78	225
75.8	375
75.82	450
75.84	150
75.86	150
75.88	450
75.9	225
75.92	525
75.94	375
75.96	225
75.98	525
76	375
76.02	75
76.04	225
76.06	375
76.08	525
76.1	450
76.12	375
76.14	225
76.16	300
76.18	300
76.2	300
76.22	600
76.24	375
76.26	225
76.28	375
76.3	225
76.32	150
76.34	525
76.36	150
76.38	300
76.4	375
76.42	150
76.44	0
76.46	225
76.48	450
76.5	225
76.52	225
76.54	450
76.56	900
76.58	300
76.6	375
76.62	75
76.64	150
76.66	75
76.68	225
76.7	675
76.72	225
76.74	375
76.76	375
76.78	450
76.8	525
76.82	450
76.84	525
76.86	225
76.88	225
76.9	900
76.92	525
76.94	300
76.96	300
76.98	225
77	600
77.02	225
77.04	300
77.06	450
77.08	450
77.1	225
77.12	225
77.14	225
77.16	600
77.18	750
77.2	150
77.22	450
77.24	75
77.26	375
77.28	525
77.3	675
77.32	450
77.34	300
77.36	150
77.38	300
77.4	225
77.42	300
77.44	300
77.46	675
77.48	600
77.5	225
77.52	225
77.54	375
77.56	675
77.58	225
77.6	150
77.62	225
77.64	225
77.66	225
77.68	375
77.7	225
77.72	300
77.74	450
77.76	150
77.78	300
77.8	225
77.82	450
77.84	300
77.86	450
77.88	225
77.9	375
77.92	75
77.94	150
77.96	450
77.98	375
78	150
78.02	375
78.04	300
78.06	450
78.08	450
78.1	375
78.12	150
78.14	675
78.16	225
78.18	225
78.2	450
78.22	150
78.24	225
78.26	300
78.28	75
78.3	150
78.32	450
78.34	300
78.36	450
78.38	675
78.4	450
78.42	300
78.44	375
78.46	600
78.48	675
78.5	600
78.52	600
78.54	375
78.56	150
78.58	225
78.6	375
78.62	450
78.64	675
78.66	300
78.68	225
78.7	450
78.72	450
78.74	375
78.76	150
78.78	225
78.8	300
78.82	375
78.84	600
78.86	150
78.88	300
78.9	600
78.92	300
78.94	75
78.96	450
78.98	375
79	375
79.02	525
79.04	375
79.06	600
79.08	300
79.1	450
79.12	450
79.14	150
79.16	450
79.18	525
79.2	225
79.22	525
79.24	525
79.26	375
79.28	225
79.3	300
79.32	225
79.34	375
79.36	525
79.38	150
79.4	375
79.42	525
79.44	150
79.46	375
79.48	450
79.5	600
79.52	450
79.54	300
79.56	600
79.58	375
79.6	450
79.62	675
79.64	450
79.66	450
79.68	150
79.7	0
79.72	525
79.74	150
79.76	450
79.78	525
79.8	375
79.82	450
79.84	450
79.86	525
79.88	300
79.9	150
79.92	375
79.94	375
79.96	300
79.98	225
80	600
80.02	450
80.04	375
80.06	225
80.08	300
80.1	375
80.12	300
80.14	225
80.16	375
80.18	300
80.2	300
80.22	150
80.24	150
80.26	300
80.28	300
80.3	525
80.32	225
80.34	75
80.36	225
80.38	75
80.4	375
80.42	375
80.44	450
80.46	225
80.48	225
80.5	375
80.52	225
80.54	225
80.56	225
80.58	375
80.6	75
80.62	150
80.64	450
80.66	225
80.68	150
80.7	600
80.72	225
80.74	525
80.76	450
80.78	450
80.8	150
80.82	375
80.84	300
80.86	525
80.88	225
80.9	450
80.92	600
80.94	600
80.96	450
80.98	600
81	450
81.02	300
81.04	600
81.06	450
81.08	225
81.1	150
81.12	300
81.14	450
81.16	75
81.18	225
81.2	225
81.22	225
81.24	375
81.26	375
81.28	225
81.3	150
81.32	225
81.34	300
81.36	150
81.38	225
81.4	300
81.42	225
81.44	300
81.46	225
81.48	150
81.5	225
81.52	525
81.54	375
81.56	300
81.58	375
81.6	300
81.62	300
81.64	300
81.66	375
81.68	225
81.7	300
81.72	150
81.74	300
81.76	75
81.78	150
81.8	450
81.82	225
81.84	225
81.86	375
81.88	375
81.9	225
81.92	225
81.94	525
81.96	150
81.98	225
82	300
82.02	450
82.04	300
82.06	375
82.08	75
82.1	375
82.12	450
82.14	375
82.16	150
82.18	525
82.2	225
82.22	150
82.24	300
82.26	600
82.28	225
82.3	375
82.32	75
82.34	75
82.36	450
82.38	225
82.4	225
82.42	225
82.44	300
82.46	300
82.48	375
82.5	75
82.52	150
82.54	525
82.56	375
82.58	150
82.6	300
82.62	225
82.64	450
82.66	225
82.68	300
82.7	300
82.72	75
82.74	225
82.76	225
82.78	225
82.8	225
82.82	450
82.84	525
82.86	300
82.88	375
82.9	225
82.92	225
82.94	600
82.96	375
82.98	300
83	450
83.02	300
83.04	525
83.06	525
83.08	375
83.1	300
83.12	225
83.14	150
83.16	375
83.18	450
83.2	300
83.22	225
83.24	150
83.26	150
83.28	150
83.3	375
83.32	525
83.34	225
83.36	450
83.38	225
83.4	150
83.42	525
83.44	450
83.46	150
83.48	600
83.5	600
83.52	600
83.54	75
83.56	225
83.58	75
83.6	150
83.62	150
83.64	150
83.66	225
83.68	600
83.7	450
83.72	150
83.74	225
83.76	225
83.78	450
83.8	525
83.82	375
83.84	225
83.86	300
83.88	300
83.9	150
83.92	150
83.94	225
83.96	225
83.98	450
84	75
84.02	375
84.04	300
84.06	450
84.08	150
84.1	75
84.12	75
84.14	150
84.16	300
84.18	150
84.2	225
84.22	0
84.24	300
84.26	150
84.28	150
84.3	150
84.32	75
84.34	225
84.36	375
84.38	450
84.4	150
84.42	375
84.44	150
84.46	75
84.48	225
84.5	75
84.52	75
84.54	225
84.56	225
84.58	375
84.6	75
84.62	0
84.64	150
84.66	300
84.68	75
84.7	225
84.72	150
84.74	150
84.76	375
84.78	300
84.8	225
84.82	300
84.84	225
84.86	225
84.88	450
84.9	300
84.92	525
84.94	225
84.96	150
84.98	150
85	225
85.02	0
85.04	0
85.06	150
85.08	225
85.1	0
85.12	150
85.14	225
85.16	150
85.18	75
85.2	225
85.22	450
85.24	375
85.26	300
85.28	75
85.3	150
85.32	225
85.34	150
85.36	75
85.38	0
85.4	150
85.42	450
85.44	75
85.46	150
85.48	225
85.5	450
85.52	150
85.54	300
85.56	450
85.58	150
85.6	225
85.62	75
85.64	375
85.66	150
85.68	525
85.7	525
85.72	450
85.74	150
85.76	300
85.78	75
85.8	375
85.82	300
85.84	225
85.86	0
85.88	225
85.9	450
85.92	225
85.94	150
85.96	75
85.98	225
86	150
86.02	225
86.04	300
86.06	150
86.08	225
86.1	225
86.12	75
86.14	75
86.16	300
86.18	225
86.2	75
86.22	225
86.24	150
86.26	300
86.28	150
86.3	225
86.32	150
86.34	225
86.36	150
86.38	450
86.4	150
86.42	300
86.44	225
86.46	150
86.48	75
86.5	225
86.52	75
86.54	300
86.56	450
86.58	150
86.6	75
86.62	300
86.64	450
86.66	450
86.68	150
86.7	150
86.72	225
86.74	225
86.76	150
86.78	75
86.8	225
86.82	150
86.84	300
86.86	75
86.88	150
86.9	150
86.92	300
86.94	150
86.96	300
86.98	150
87	375
87.02	225
87.04	300
87.06	300
87.08	150
87.1	150
87.12	150
87.14	225
87.16	75
87.18	150
87.2	450
87.22	525
87.24	375
87.26	225
87.28	300
87.3	225
87.32	225
87.34	225
87.36	75
87.38	75
87.4	0
87.42	75
87.44	300
87.46	225
87.48	150
87.5	225
87.52	225
87.54	150
87.56	150
87.58	150
87.6	225
87.62	450
87.64	525
87.66	450
87.68	75
87.7	150
87.72	375
87.74	225
87.76	0
87.78	300
87.8	225
87.82	600
87.84	300
87.86	150
87.88	0
87.9	375
87.92	225
87.94	375
87.96	150
87.98	0
88	75
88.02	375
88.04	150
88.06	150
88.08	150
88.1	375
88.12	150
88.14	225
88.16	225
88.18	225
88.2	450
88.22	150
88.24	375
88.26	225
88.28	375
88.3	0
88.32	225
88.34	0
88.36	225
88.38	225
88.4	75
88.42	450
88.44	300
88.46	225
88.48	0
88.5	225
88.52	375
88.54	300
88.56	300
88.58	75
88.6	225
88.62	150
88.64	0
88.66	300
88.68	225
88.7	150
88.72	375
88.74	300
88.76	0
88.78	75
88.8	225
88.82	300
88.84	300
88.86	150
88.88	300
88.9	225
88.92	150
88.94	225
88.96	0
88.98	0
89	225
89.02	525
89.04	300
89.06	225
89.08	375
89.1	375
89.12	75
89.14	150
89.16	225
89.18	225
89.2	75
89.22	225
89.24	75
89.26	300
89.28	450
89.3	75
89.32	0
89.34	150
89.36	300
89.38	0
89.4	0
89.42	150
89.44	450
89.46	300
89.48	75
89.5	75
89.52	225
89.54	75
89.56	225
89.58	375
89.6	150
89.62	150
89.64	75
89.66	75
89.68	225
89.7	150
89.72	300
89.74	150
89.76	600
89.78	225
89.8	300
89.82	225
89.84	75
89.86	225
89.88	375
89.9	150
89.92	75
89.94	225
89.96	150
89.98	225
90	225

