Sample	 
Comments	 
Filename	G:\ceshi\20230223\wangjun410-03.22\cnt-s_Theta_2-Theta.raw

Goniometer	MiniFlex 300/600
Attachment	Air-sensitive Sample Holder
Monochromater	None

X	0
Y	0
Z	0
10	375
10.02	450
10.04	675
10.06	450
10.08	525
10.1	300
10.12	525
10.14	225
10.16	300
10.18	750
10.2	450
10.22	525
10.24	375
10.26	975
10.28	750
10.3	375
10.32	450
10.34	600
10.36	600
10.38	375
10.4	375
10.42	450
10.44	450
10.46	600
10.48	150
10.5	225
10.52	300
10.54	750
10.56	450
10.58	525
10.6	600
10.62	375
10.64	375
10.66	525
10.68	600
10.7	750
10.72	525
10.74	375
10.76	525
10.78	675
10.8	525
10.82	600
10.84	300
10.86	675
10.88	825
10.9	450
10.92	675
10.94	300
10.96	525
10.98	525
11	525
11.02	300
11.04	300
11.06	525
11.08	450
11.1	450
11.12	750
11.14	750
11.16	375
11.18	1050
11.2	450
11.22	300
11.24	300
11.26	525
11.28	525
11.3	225
11.32	375
11.34	525
11.36	675
11.38	825
11.4	525
11.42	675
11.44	525
11.46	675
11.48	525
11.5	450
11.52	750
11.54	675
11.56	225
11.58	600
11.6	450
11.62	450
11.64	525
11.66	600
11.68	300
11.7	300
11.72	150
11.74	675
11.76	825
11.78	825
11.8	825
11.82	450
11.84	525
11.86	375
11.88	375
11.9	525
11.92	450
11.94	375
11.96	675
11.98	300
12	300
12.02	150
12.04	750
12.06	750
12.08	375
12.1	300
12.12	525
12.14	825
12.16	525
12.18	450
12.2	525
12.22	525
12.24	375
12.26	525
12.28	675
12.3	450
12.32	600
12.34	375
12.36	525
12.38	525
12.4	300
12.42	525
12.44	375
12.46	75
12.48	450
12.5	450
12.52	900
12.54	975
12.56	300
12.58	75
12.6	150
12.62	375
12.64	525
12.66	450
12.68	525
12.7	450
12.72	450
12.74	300
12.76	600
12.78	600
12.8	900
12.82	750
12.84	825
12.86	675
12.88	450
12.9	600
12.92	600
12.94	600
12.96	600
12.98	675
13	825
13.02	375
13.04	300
13.06	750
13.08	600
13.1	375
13.12	525
13.14	450
13.16	375
13.18	450
13.2	525
13.22	675
13.24	750
13.26	600
13.28	975
13.3	900
13.32	825
13.34	375
13.36	675
13.38	525
13.4	450
13.42	750
13.44	750
13.46	675
13.48	750
13.5	600
13.52	375
13.54	375
13.56	600
13.58	525
13.6	750
13.62	450
13.64	600
13.66	675
13.68	750
13.7	450
13.72	975
13.74	450
13.76	675
13.78	825
13.8	375
13.82	750
13.84	300
13.86	150
13.88	375
13.9	375
13.92	750
13.94	675
13.96	675
13.98	225
14	375
14.02	600
14.04	750
14.06	300
14.08	375
14.1	225
14.12	300
14.14	375
14.16	300
14.18	375
14.2	450
14.22	525
14.24	375
14.26	750
14.28	900
14.3	750
14.32	675
14.34	675
14.36	600
14.38	525
14.4	1275
14.42	675
14.44	450
14.46	450
14.48	525
14.5	600
14.52	1200
14.54	525
14.56	675
14.58	750
14.6	450
14.62	225
14.64	900
14.66	900
14.68	750
14.7	600
14.72	750
14.74	1050
14.76	975
14.78	600
14.8	825
14.82	375
14.84	900
14.86	825
14.88	600
14.9	675
14.92	975
14.94	675
14.96	825
14.98	300
15	450
15.02	825
15.04	750
15.06	975
15.08	750
15.1	825
15.12	600
15.14	600
15.16	600
15.18	600
15.2	825
15.22	525
15.24	825
15.26	750
15.28	1125
15.3	825
15.32	900
15.34	1350
15.36	1350
15.38	600
15.4	750
15.42	825
15.44	600
15.46	600
15.48	1125
15.5	1050
15.52	900
15.54	675
15.56	450
15.58	600
15.6	300
15.62	750
15.64	675
15.66	375
15.68	300
15.7	600
15.72	675
15.74	750
15.76	450
15.78	825
15.8	1275
15.82	975
15.84	900
15.86	825
15.88	525
15.9	675
15.92	600
15.94	675
15.96	675
15.98	375
16	150
16.02	525
16.04	900
16.06	600
16.08	450
16.1	750
16.12	750
16.14	675
16.16	900
16.18	750
16.2	1125
16.22	1200
16.24	750
16.26	1650
16.28	825
16.3	675
16.32	525
16.34	300
16.36	975
16.38	600
16.4	300
16.42	300
16.44	525
16.46	450
16.48	600
16.5	675
16.52	750
16.54	750
16.56	375
16.58	1050
16.6	675
16.62	675
16.64	450
16.66	450
16.68	375
16.7	900
16.72	900
16.74	1125
16.76	750
16.78	450
16.8	750
16.82	600
16.84	525
16.86	900
16.88	750
16.9	600
16.92	750
16.94	375
16.96	600
16.98	450
17	975
17.02	525
17.04	675
17.06	750
17.08	750
17.1	975
17.12	900
17.14	825
17.16	750
17.18	825
17.2	900
17.22	825
17.24	825
17.26	675
17.28	975
17.3	750
17.32	750
17.34	300
17.36	675
17.38	825
17.4	750
17.42	825
17.44	750
17.46	825
17.48	750
17.5	600
17.52	1350
17.54	525
17.56	750
17.58	1125
17.6	900
17.62	975
17.64	600
17.66	1500
17.68	750
17.7	900
17.72	1125
17.74	750
17.76	675
17.78	750
17.8	525
17.82	975
17.84	975
17.86	975
17.88	450
17.9	825
17.92	900
17.94	450
17.96	675
17.98	675
18	975
18.02	825
18.04	825
18.06	750
18.08	675
18.1	1050
18.12	1275
18.14	1200
18.16	975
18.18	825
18.2	750
18.22	750
18.24	600
18.26	900
18.28	900
18.3	450
18.32	450
18.34	825
18.36	675
18.38	750
18.4	600
18.42	975
18.44	1050
18.46	900
18.48	1575
18.5	1275
18.52	750
18.54	1050
18.56	600
18.58	825
18.6	1575
18.62	1050
18.64	1125
18.66	750
18.68	675
18.7	675
18.72	600
18.74	1500
18.76	1125
18.78	1050
18.8	675
18.82	675
18.84	900
18.86	1125
18.88	1125
18.9	1350
18.92	600
18.94	900
18.96	450
18.98	675
19	1050
19.02	1425
19.04	900
19.06	900
19.08	825
19.1	1125
19.12	975
19.14	1125
19.16	750
19.18	975
19.2	750
19.22	525
19.24	750
19.26	1050
19.28	975
19.3	1125
19.32	1350
19.34	975
19.36	1500
19.38	1050
19.4	1125
19.42	900
19.44	1275
19.46	1275
19.48	975
19.5	900
19.52	825
19.54	1050
19.56	1275
19.58	825
19.6	1575
19.62	1425
19.64	1275
19.66	975
19.68	1275
19.7	1125
19.72	1500
19.74	1575
19.76	900
19.78	975
19.8	975
19.82	1650
19.84	975
19.86	1725
19.88	1725
19.9	1125
19.92	825
19.94	1200
19.96	900
19.98	1350
20	1275
20.02	1275
20.04	1575
20.06	1875
20.08	2100
20.1	1200
20.12	1350
20.14	1050
20.16	1725
20.18	1575
20.2	1575
20.22	1575
20.24	1425
20.26	1650
20.28	1500
20.3	1500
20.32	1500
20.34	1200
20.36	1200
20.38	1425
20.4	1650
20.42	1500
20.44	975
20.46	1950
20.48	1800
20.5	1425
20.52	975
20.54	1275
20.56	1425
20.58	675
20.6	1425
20.62	1050
20.64	1500
20.66	750
20.68	525
20.7	1125
20.72	1425
20.74	975
20.76	1350
20.78	1200
20.8	825
20.82	975
20.84	1200
20.86	825
20.88	1050
20.9	1425
20.92	1050
20.94	675
20.96	975
20.98	1425
21	1050
21.02	1050
21.04	1200
21.06	975
21.08	1125
21.1	1125
21.12	1350
21.14	1500
21.16	1350
21.18	1425
21.2	1650
21.22	1425
21.24	1200
21.26	1275
21.28	1425
21.3	1425
21.32	1425
21.34	1275
21.36	1275
21.38	1050
21.4	1425
21.42	1050
21.44	1725
21.46	1200
21.48	1125
21.5	1275
21.52	1500
21.54	1725
21.56	2025
21.58	975
21.6	1050
21.62	1275
21.64	1425
21.66	1575
21.68	1650
21.7	1200
21.72	1050
21.74	825
21.76	975
21.78	1425
21.8	1725
21.82	1125
21.84	1350
21.86	1575
21.88	1875
21.9	1500
21.92	1275
21.94	1275
21.96	1350
21.98	1050
22	675
22.02	1200
22.04	1200
22.06	1200
22.08	1125
22.1	1650
22.12	1050
22.14	825
22.16	1050
22.18	750
22.2	1200
22.22	1275
22.24	1275
22.26	1125
22.28	1275
22.3	1425
22.32	1800
22.34	1575
22.36	1350
22.38	1425
22.4	1275
22.42	1275
22.44	1500
22.46	1275
22.48	975
22.5	1350
22.52	1350
22.54	1125
22.56	1875
22.58	2025
22.6	1725
22.62	1575
22.64	1350
22.66	1275
22.68	2175
22.7	2025
22.72	1575
22.74	1800
22.76	1500
22.78	1650
22.8	1875
22.82	1950
22.84	2175
22.86	2100
22.88	2250
22.9	2550
22.92	2925
22.94	2625
22.96	3075
22.98	3375
23	3600
23.02	4950
23.04	4050
23.06	3000
23.08	3450
23.1	3600
23.12	2925
23.14	2325
23.16	2775
23.18	2100
23.2	1725
23.22	2250
23.24	1875
23.26	1950
23.28	1725
23.3	1425
23.32	1800
23.34	1500
23.36	1125
23.38	975
23.4	1725
23.42	1425
23.44	1575
23.46	1650
23.48	525
23.5	1275
23.52	1275
23.54	1200
23.56	1350
23.58	1500
23.6	1800
23.62	1200
23.64	1425
23.66	1350
23.68	2475
23.7	825
23.72	1575
23.74	2025
23.76	2025
23.78	1800
23.8	2025
23.82	2100
23.84	1575
23.86	1575
23.88	1500
23.9	1500
23.92	1575
23.94	1350
23.96	1500
23.98	1875
24	1350
24.02	1575
24.04	1500
24.06	1725
24.08	2025
24.1	1500
24.12	1875
24.14	1275
24.16	1425
24.18	1725
24.2	1950
24.22	1950
24.24	1500
24.26	2100
24.28	1875
24.3	1875
24.32	2100
24.34	2325
24.36	1950
24.38	1575
24.4	1500
24.42	2025
24.44	2100
24.46	1050
24.48	1275
24.5	1500
24.52	1575
24.54	1425
24.56	1275
24.58	1725
24.6	975
24.62	1650
24.64	1275
24.66	900
24.68	1125
24.7	1875
24.72	1125
24.74	1650
24.76	975
24.78	1200
24.8	1575
24.82	975
24.84	900
24.86	900
24.88	1725
24.9	1875
24.92	1275
24.94	1350
24.96	1575
24.98	1350
25	2025
25.02	1800
25.04	1125
25.06	750
25.08	1125
25.1	825
25.12	750
25.14	900
25.16	1425
25.18	1350
25.2	750
25.22	1650
25.24	1275
25.26	825
25.28	1200
25.3	1500
25.32	1200
25.34	1125
25.36	1725
25.38	1725
25.4	825
25.42	1350
25.44	1725
25.46	1800
25.48	900
25.5	1425
25.52	2025
25.54	2025
25.56	1575
25.58	1275
25.6	1500
25.62	825
25.64	1500
25.66	2100
25.68	2175
25.7	1800
25.72	2175
25.74	2175
25.76	2400
25.78	2175
25.8	1950
25.82	2400
25.84	2775
25.86	1800
25.88	1650
25.9	2250
25.92	1425
25.94	1950
25.96	2325
25.98	900
26	900
26.02	1350
26.04	975
26.06	1125
26.08	1125
26.1	900
26.12	1275
26.14	1050
26.16	1425
26.18	1200
26.2	1125
26.22	1050
26.24	1275
26.26	675
26.28	900
26.3	600
26.32	750
26.34	1350
26.36	900
26.38	1500
26.4	1500
26.42	1275
26.44	1200
26.46	825
26.48	975
26.5	1200
26.52	1350
26.54	1800
26.56	1425
26.58	1425
26.6	825
26.62	1425
26.64	1200
26.66	1575
26.68	1425
26.7	1125
26.72	1350
26.74	825
26.76	1050
26.78	1275
26.8	975
26.82	825
26.84	1050
26.86	975
26.88	825
26.9	900
26.92	1350
26.94	375
26.96	675
26.98	1275
27	675
27.02	675
27.04	1050
27.06	900
27.08	750
27.1	1050
27.12	975
27.14	975
27.16	900
27.18	1050
27.2	1350
27.22	825
27.24	525
27.26	600
27.28	1125
27.3	1500
27.32	900
27.34	975
27.36	825
27.38	1275
27.4	1200
27.42	675
27.44	900
27.46	1200
27.48	1050
27.5	1050
27.52	1425
27.54	2400
27.56	2175
27.58	1950
27.6	2100
27.62	1950
27.64	1875
27.66	2400
27.68	2025
27.7	2250
27.72	2175
27.74	1725
27.76	1500
27.78	1500
27.8	2025
27.82	1350
27.84	900
27.86	975
27.88	975
27.9	1125
27.92	975
27.94	975
27.96	900
27.98	675
28	1125
28.02	450
28.04	825
28.06	750
28.08	1275
28.1	1425
28.12	825
28.14	750
28.16	825
28.18	750
28.2	975
28.22	600
28.24	675
28.26	825
28.28	825
28.3	450
28.32	675
28.34	975
28.36	975
28.38	825
28.4	450
28.42	1050
28.44	975
28.46	525
28.48	675
28.5	1425
28.52	1125
28.54	750
28.56	825
28.58	675
28.6	1050
28.62	1500
28.64	1050
28.66	975
28.68	825
28.7	1200
28.72	1350
28.74	1275
28.76	825
28.78	1275
28.8	1650
28.82	1200
28.84	1425
28.86	1125
28.88	1350
28.9	1350
28.92	1575
28.94	1275
28.96	900
28.98	825
29	975
29.02	1200
29.04	1200
29.06	1125
29.08	750
29.1	1050
29.12	825
29.14	750
29.16	1350
29.18	675
29.2	1275
29.22	825
29.24	1275
29.26	675
29.28	1200
29.3	1200
29.32	750
29.34	1125
29.36	975
29.38	600
29.4	750
29.42	300
29.44	525
29.46	825
29.48	450
29.5	1500
29.52	1050
29.54	1125
29.56	600
29.58	675
29.6	900
29.62	525
29.64	525
29.66	300
29.68	900
29.7	600
29.72	600
29.74	975
29.76	450
29.78	450
29.8	525
29.82	825
29.84	600
29.86	600
29.88	675
29.9	825
29.92	975
29.94	1125
29.96	450
29.98	1125
30	450
30.02	750
30.04	600
30.06	675
30.08	600
30.1	450
30.12	600
30.14	450
30.16	375
30.18	525
30.2	975
30.22	300
30.24	525
30.26	525
30.28	450
30.3	750
30.32	750
30.34	825
30.36	375
30.38	900
30.4	675
30.42	525
30.44	600
30.46	600
30.48	600
30.5	675
30.52	675
30.54	600
30.56	450
30.58	225
30.6	375
30.62	600
30.64	375
30.66	375
30.68	975
30.7	900
30.72	750
30.74	600
30.76	525
30.78	675
30.8	300
30.82	900
30.84	600
30.86	825
30.88	900
30.9	1050
30.92	600
30.94	600
30.96	975
30.98	825
31	525
31.02	600
31.04	300
31.06	525
31.08	525
31.1	525
31.12	900
31.14	675
31.16	975
31.18	450
31.2	600
31.22	900
31.24	1275
31.26	1425
31.28	825
31.3	1050
31.32	825
31.34	1125
31.36	675
31.38	1125
31.4	1575
31.42	900
31.44	1425
31.46	675
31.48	900
31.5	1050
31.52	825
31.54	600
31.56	375
31.58	675
31.6	375
31.62	525
31.64	675
31.66	375
31.68	525
31.7	825
31.72	750
31.74	825
31.76	600
31.78	300
31.8	825
31.82	750
31.84	375
31.86	450
31.88	825
31.9	525
31.92	600
31.94	525
31.96	450
31.98	150
32	525
32.02	675
32.04	600
32.06	450
32.08	375
32.1	900
32.12	675
32.14	375
32.16	525
32.18	600
32.2	225
32.22	525
32.24	525
32.26	750
32.28	675
32.3	225
32.32	450
32.34	300
32.36	450
32.38	300
32.4	600
32.42	450
32.44	525
32.46	600
32.48	225
32.5	375
32.52	450
32.54	375
32.56	525
32.58	150
32.6	225
32.62	300
32.64	525
32.66	375
32.68	375
32.7	300
32.72	375
32.74	300
32.76	450
32.78	450
32.8	600
32.82	450
32.84	525
32.86	675
32.88	375
32.9	450
32.92	300
32.94	675
32.96	450
32.98	375
33	600
33.02	225
33.04	600
33.06	225
33.08	450
33.1	300
33.12	225
33.14	225
33.16	375
33.18	450
33.2	825
33.22	675
33.24	675
33.26	450
33.28	750
33.3	675
33.32	675
33.34	750
33.36	900
33.38	900
33.4	750
33.42	900
33.44	450
33.46	375
33.48	600
33.5	600
33.52	375
33.54	375
33.56	450
33.58	300
33.6	600
33.62	300
33.64	375
33.66	525
33.68	525
33.7	750
33.72	225
33.74	750
33.76	300
33.78	600
33.8	525
33.82	600
33.84	525
33.86	600
33.88	450
33.9	525
33.92	450
33.94	675
33.96	900
33.98	600
34	600
34.02	825
34.04	750
34.06	900
34.08	1050
34.1	600
34.12	300
34.14	450
34.16	375
34.18	675
34.2	675
34.22	900
34.24	900
34.26	675
34.28	825
34.3	300
34.32	450
34.34	675
34.36	525
34.38	450
34.4	225
34.42	300
34.44	1050
34.46	675
34.48	525
34.5	525
34.52	675
34.54	375
34.56	225
34.58	525
34.6	450
34.62	300
34.64	525
34.66	450
34.68	225
34.7	825
34.72	600
34.74	525
34.76	825
34.78	1050
34.8	750
34.82	675
34.84	525
34.86	600
34.88	300
34.9	600
34.92	750
34.94	525
34.96	825
34.98	900
35	450
35.02	525
35.04	600
35.06	300
35.08	375
35.1	300
35.12	300
35.14	600
35.16	900
35.18	1200
35.2	825
35.22	525
35.24	600
35.26	525
35.28	675
35.3	600
35.32	375
35.34	450
35.36	375
35.38	450
35.4	675
35.42	600
35.44	450
35.46	600
35.48	825
35.5	375
35.52	525
35.54	675
35.56	375
35.58	600
35.6	300
35.62	600
35.64	525
35.66	525
35.68	600
35.7	300
35.72	525
35.74	300
35.76	450
35.78	675
35.8	750
35.82	525
35.84	1050
35.86	450
35.88	525
35.9	825
35.92	450
35.94	600
35.96	675
35.98	525
36	525
36.02	675
36.04	1275
36.06	750
36.08	750
36.1	450
36.12	825
36.14	750
36.16	450
36.18	675
36.2	525
36.22	600
36.24	225
36.26	675
36.28	300
36.3	300
36.32	525
36.34	375
36.36	825
36.38	450
36.4	450
36.42	375
36.44	225
36.46	450
36.48	600
36.5	450
36.52	450
36.54	450
36.56	375
36.58	525
36.6	600
36.62	375
36.64	525
36.66	600
36.68	375
36.7	600
36.72	300
36.74	525
36.76	300
36.78	600
36.8	750
36.82	750
36.84	450
36.86	450
36.88	975
36.9	1200
36.92	1275
36.94	675
36.96	375
36.98	900
37	1050
37.02	450
37.04	525
37.06	600
37.08	525
37.1	825
37.12	750
37.14	300
37.16	450
37.18	600
37.2	225
37.22	375
37.24	750
37.26	375
37.28	300
37.3	525
37.32	600
37.34	225
37.36	600
37.38	450
37.4	675
37.42	375
37.44	225
37.46	525
37.48	675
37.5	675
37.52	525
37.54	300
37.56	300
37.58	450
37.6	525
37.62	600
37.64	450
37.66	450
37.68	450
37.7	225
37.72	525
37.74	525
37.76	900
37.78	375
37.8	450
37.82	600
37.84	450
37.86	525
37.88	750
37.9	750
37.92	600
37.94	375
37.96	675
37.98	600
38	600
38.02	300
38.04	750
38.06	675
38.08	525
38.1	225
38.12	225
38.14	300
38.16	525
38.18	525
38.2	300
38.22	300
38.24	450
38.26	300
38.28	300
38.3	450
38.32	600
38.34	525
38.36	525
38.38	525
38.4	525
38.42	525
38.44	525
38.46	525
38.48	525
38.5	300
38.52	75
38.54	0
38.56	150
38.58	75
38.6	150
38.62	450
38.64	75
38.66	75
38.68	300
38.7	225
38.72	225
38.74	300
38.76	375
38.78	450
38.8	300
38.82	375
38.84	450
38.86	225
38.88	450
38.9	525
38.92	600
38.94	375
38.96	75
38.98	150
39	375
39.02	375
39.04	600
39.06	450
39.08	825
39.1	150
39.12	225
39.14	375
39.16	300
39.18	600
39.2	450
39.22	525
39.24	375
39.26	375
39.28	225
39.3	450
39.32	450
39.34	150
39.36	750
39.38	525
39.4	375
39.42	750
39.44	300
39.46	150
39.48	225
39.5	675
39.52	525
39.54	375
39.56	450
39.58	525
39.6	450
39.62	300
39.64	225
39.66	375
39.68	225
39.7	450
39.72	75
39.74	225
39.76	375
39.78	450
39.8	450
39.82	675
39.84	600
39.86	750
39.88	450
39.9	600
39.92	375
39.94	450
39.96	375
39.98	225
40	300
40.02	450
40.04	300
40.06	225
40.08	300
40.1	300
40.12	450
40.14	375
40.16	375
40.18	300
40.2	450
40.22	450
40.24	600
40.26	150
40.28	225
40.3	150
40.32	300
40.34	375
40.36	450
40.38	450
40.4	300
40.42	375
40.44	300
40.46	450
40.48	300
40.5	150
40.52	450
40.54	825
40.56	150
40.58	675
40.6	450
40.62	375
40.64	450
40.66	225
40.68	375
40.7	675
40.72	600
40.74	375
40.76	375
40.78	150
40.8	600
40.82	375
40.84	300
40.86	525
40.88	300
40.9	225
40.92	450
40.94	150
40.96	375
40.98	225
41	450
41.02	300
41.04	525
41.06	300
41.08	450
41.1	525
41.12	375
41.14	225
41.16	75
41.18	150
41.2	300
41.22	375
41.24	375
41.26	375
41.28	150
41.3	375
41.32	300
41.34	450
41.36	375
41.38	375
41.4	450
41.42	300
41.44	150
41.46	375
41.48	675
41.5	150
41.52	75
41.54	975
41.56	750
41.58	825
41.6	225
41.62	150
41.64	300
41.66	225
41.68	225
41.7	525
41.72	450
41.74	375
41.76	225
41.78	300
41.8	225
41.82	450
41.84	450
41.86	600
41.88	300
41.9	450
41.92	150
41.94	225
41.96	525
41.98	150
42	75
42.02	300
42.04	525
42.06	525
42.08	450
42.1	525
42.12	225
42.14	375
42.16	450
42.18	525
42.2	675
42.22	675
42.24	450
42.26	450
42.28	375
42.3	450
42.32	300
42.34	300
42.36	900
42.38	525
42.4	0
42.42	450
42.44	375
42.46	375
42.48	225
42.5	450
42.52	375
42.54	675
42.56	525
42.58	600
42.6	675
42.62	675
42.64	450
42.66	825
42.68	675
42.7	750
42.72	600
42.74	1275
42.76	525
42.78	300
42.8	525
42.82	675
42.84	450
42.86	525
42.88	525
42.9	450
42.92	525
42.94	450
42.96	600
42.98	450
43	750
43.02	525
43.04	750
43.06	600
43.08	150
43.1	375
43.12	375
43.14	300
43.16	150
43.18	375
43.2	300
43.22	225
43.24	150
43.26	600
43.28	300
43.3	300
43.32	150
43.34	375
43.36	225
43.38	375
43.4	900
43.42	450
43.44	450
43.46	225
43.48	300
43.5	225
43.52	225
43.54	300
43.56	75
43.58	225
43.6	300
43.62	300
43.64	450
43.66	300
43.68	450
43.7	300
43.72	375
43.74	300
43.76	300
43.78	225
43.8	525
43.82	225
43.84	600
43.86	525
43.88	675
43.9	450
43.92	300
43.94	225
43.96	300
43.98	450
44	525
44.02	600
44.04	525
44.06	675
44.08	300
44.1	300
44.12	450
44.14	375
44.16	525
44.18	525
44.2	150
44.22	450
44.24	450
44.26	225
44.28	225
44.3	300
44.32	450
44.34	525
44.36	300
44.38	300
44.4	300
44.42	300
44.44	375
44.46	225
44.48	675
44.5	450
44.52	300
44.54	450
44.56	450
44.58	300
44.6	300
44.62	75
44.64	150
44.66	225
44.68	150
44.7	75
44.72	600
44.74	600
44.76	525
44.78	300
44.8	525
44.82	300
44.84	300
44.86	300
44.88	450
44.9	450
44.92	525
44.94	600
44.96	300
44.98	300
45	375
45.02	75
45.04	525
45.06	150
45.08	525
45.1	900
45.12	450
45.14	825
45.16	525
45.18	450
45.2	375
45.22	225
45.24	675
45.26	450
45.28	525
45.3	600
45.32	300
45.34	450
45.36	300
45.38	525
45.4	600
45.42	675
45.44	225
45.46	225
45.48	525
45.5	225
45.52	525
45.54	450
45.56	825
45.58	600
45.6	600
45.62	525
45.64	600
45.66	600
45.68	525
45.7	375
45.72	300
45.74	225
45.76	600
45.78	375
45.8	300
45.82	450
45.84	75
45.86	300
45.88	300
45.9	375
45.92	375
45.94	600
45.96	375
45.98	600
46	225
46.02	525
46.04	525
46.06	675
46.08	225
46.1	900
46.12	375
46.14	675
46.16	375
46.18	300
46.2	675
46.22	525
46.24	525
46.26	375
46.28	300
46.3	150
46.32	375
46.34	300
46.36	75
46.38	375
46.4	225
46.42	450
46.44	375
46.46	300
46.48	375
46.5	600
46.52	225
46.54	225
46.56	150
46.58	75
46.6	450
46.62	525
46.64	525
46.66	600
46.68	450
46.7	675
46.72	75
46.74	75
46.76	75
46.78	300
46.8	675
46.82	825
46.84	450
46.86	75
46.88	150
46.9	225
46.92	375
46.94	525
46.96	450
46.98	375
47	675
47.02	375
47.04	375
47.06	75
47.08	75
47.1	75
47.12	300
47.14	300
47.16	375
47.18	450
47.2	450
47.22	300
47.24	375
47.26	525
47.28	750
47.3	375
47.32	375
47.34	450
47.36	450
47.38	225
47.4	450
47.42	375
47.44	225
47.46	675
47.48	450
47.5	375
47.52	450
47.54	675
47.56	300
47.58	375
47.6	750
47.62	525
47.64	375
47.66	525
47.68	450
47.7	525
47.72	525
47.74	600
47.76	900
47.78	975
47.8	450
47.82	300
47.84	300
47.86	225
47.88	375
47.9	375
47.92	450
47.94	225
47.96	525
47.98	600
48	600
48.02	300
48.04	375
48.06	600
48.08	450
48.1	600
48.12	225
48.14	600
48.16	375
48.18	150
48.2	375
48.22	75
48.24	150
48.26	375
48.28	225
48.3	150
48.32	225
48.34	300
48.36	525
48.38	525
48.4	450
48.42	675
48.44	525
48.46	300
48.48	150
48.5	225
48.52	300
48.54	525
48.56	450
48.58	300
48.6	300
48.62	225
48.64	300
48.66	375
48.68	600
48.7	300
48.72	375
48.74	300
48.76	600
48.78	150
48.8	300
48.82	375
48.84	225
48.86	675
48.88	225
48.9	150
48.92	300
48.94	225
48.96	150
48.98	450
49	300
49.02	375
49.04	225
49.06	525
49.08	300
49.1	375
49.12	375
49.14	225
49.16	600
49.18	525
49.2	225
49.22	375
49.24	525
49.26	675
49.28	525
49.3	675
49.32	300
49.34	750
49.36	300
49.38	450
49.4	375
49.42	675
49.44	450
49.46	225
49.48	525
49.5	825
49.52	375
49.54	450
49.56	600
49.58	675
49.6	675
49.62	225
49.64	450
49.66	375
49.68	150
49.7	450
49.72	225
49.74	375
49.76	600
49.78	525
49.8	675
49.82	450
49.84	450
49.86	300
49.88	525
49.9	750
49.92	375
49.94	525
49.96	450
49.98	525
50	525
50.02	225
50.04	525
50.06	450
50.08	300
50.1	150
50.12	450
50.14	750
50.16	825
50.18	600
50.2	525
50.22	375
50.24	375
50.26	0
50.28	375
50.3	450
50.32	300
50.34	225
50.36	450
50.38	375
50.4	675
50.42	750
50.44	525
50.46	525
50.48	450
50.5	825
50.52	675
50.54	525
50.56	450
50.58	375
50.6	750
50.62	225
50.64	300
50.66	75
50.68	150
50.7	300
50.72	225
50.74	150
50.76	450
50.78	450
50.8	300
50.82	150
50.84	450
50.86	600
50.88	300
50.9	600
50.92	525
50.94	225
50.96	225
50.98	375
51	375
51.02	225
51.04	225
51.06	375
51.08	225
51.1	525
51.12	825
51.14	975
51.16	450
51.18	750
51.2	975
51.22	675
51.24	525
51.26	600
51.28	525
51.3	600
51.32	825
51.34	525
51.36	375
51.38	675
51.4	825
51.42	300
51.44	75
51.46	300
51.48	225
51.5	300
51.52	450
51.54	150
51.56	450
51.58	225
51.6	450
51.62	525
51.64	1125
51.66	600
51.68	300
51.7	600
51.72	300
51.74	525
51.76	225
51.78	150
51.8	525
51.82	450
51.84	150
51.86	300
51.88	300
51.9	375
51.92	525
51.94	225
51.96	450
51.98	300
52	525
52.02	450
52.04	975
52.06	675
52.08	300
52.1	375
52.12	600
52.14	375
52.16	375
52.18	675
52.2	675
52.22	450
52.24	375
52.26	300
52.28	450
52.3	675
52.32	600
52.34	750
52.36	675
52.38	300
52.4	75
52.42	300
52.44	450
52.46	600
52.48	375
52.5	300
52.52	375
52.54	300
52.56	225
52.58	300
52.6	375
52.62	450
52.64	300
52.66	300
52.68	300
52.7	75
52.72	225
52.74	525
52.76	375
52.78	750
52.8	825
52.82	600
52.84	300
52.86	600
52.88	450
52.9	450
52.92	600
52.94	975
52.96	525
52.98	600
53	225
53.02	525
53.04	525
53.06	825
53.08	375
53.1	300
53.12	450
53.14	450
53.16	0
53.18	750
53.2	600
53.22	450
53.24	150
53.26	450
53.28	525
53.3	150
53.32	375
53.34	300
53.36	450
53.38	75
53.4	300
53.42	450
53.44	450
53.46	525
53.48	375
53.5	600
53.52	375
53.54	375
53.56	300
53.58	525
53.6	825
53.62	600
53.64	750
53.66	600
53.68	375
53.7	450
53.72	525
53.74	375
53.76	975
53.78	750
53.8	675
53.82	750
53.84	525
53.86	750
53.88	600
53.9	600
53.92	600
53.94	450
53.96	600
53.98	600
54	525
54.02	150
54.04	75
54.06	300
54.08	375
54.1	525
54.12	300
54.14	300
54.16	300
54.18	225
54.2	0
54.22	225
54.24	525
54.26	450
54.28	75
54.3	450
54.32	525
54.34	450
54.36	300
54.38	450
54.4	150
54.42	150
54.44	375
54.46	375
54.48	375
54.5	300
54.52	450
54.54	525
54.56	675
54.58	525
54.6	375
54.62	375
54.64	225
54.66	525
54.68	600
54.7	450
54.72	150
54.74	375
54.76	300
54.78	375
54.8	450
54.82	300
54.84	225
54.86	225
54.88	375
54.9	675
54.92	600
54.94	675
54.96	375
54.98	300
55	450
55.02	300
55.04	375
55.06	375
55.08	225
55.1	300
55.12	450
55.14	150
55.16	375
55.18	150
55.2	375
55.22	375
55.24	450
55.26	600
55.28	300
55.3	375
55.32	300
55.34	225
55.36	450
55.38	300
55.4	450
55.42	300
55.44	375
55.46	300
55.48	300
55.5	375
55.52	225
55.54	225
55.56	600
55.58	450
55.6	375
55.62	225
55.64	225
55.66	375
55.68	450
55.7	375
55.72	450
55.74	450
55.76	450
55.78	525
55.8	225
55.82	450
55.84	300
55.86	150
55.88	375
55.9	375
55.92	675
55.94	675
55.96	150
55.98	75
56	525
56.02	825
56.04	825
56.06	375
56.08	375
56.1	525
56.12	525
56.14	450
56.16	375
56.18	450
56.2	600
56.22	525
56.24	300
56.26	300
56.28	300
56.3	525
56.32	375
56.34	300
56.36	825
56.38	450
56.4	150
56.42	300
56.44	225
56.46	375
56.48	300
56.5	225
56.52	450
56.54	525
56.56	225
56.58	750
56.6	450
56.62	600
56.64	825
56.66	375
56.68	750
56.7	600
56.72	300
56.74	225
56.76	375
56.78	225
56.8	225
56.82	675
56.84	525
56.86	150
56.88	150
56.9	375
56.92	225
56.94	300
56.96	300
56.98	375
57	450
57.02	225
57.04	300
57.06	375
57.08	525
57.1	450
57.12	600
57.14	525
57.16	450
57.18	600
57.2	825
57.22	375
57.24	600
57.26	450
57.28	300
57.3	225
57.32	300
57.34	225
57.36	600
57.38	525
57.4	450
57.42	300
57.44	750
57.46	525
57.48	525
57.5	300
57.52	450
57.54	825
57.56	375
57.58	375
57.6	525
57.62	525
57.64	900
57.66	375
57.68	225
57.7	825
57.72	450
57.74	225
57.76	225
57.78	450
57.8	450
57.82	450
57.84	450
57.86	225
57.88	525
57.9	525
57.92	450
57.94	150
57.96	225
57.98	600
58	825
58.02	375
58.04	375
58.06	450
58.08	300
58.1	375
58.12	450
58.14	225
58.16	450
58.18	75
58.2	225
58.22	300
58.24	600
58.26	225
58.28	150
58.3	300
58.32	225
58.34	300
58.36	225
58.38	750
58.4	525
58.42	0
58.44	300
58.46	450
58.48	225
58.5	300
58.52	300
58.54	300
58.56	450
58.58	450
58.6	150
58.62	150
58.64	375
58.66	375
58.68	375
58.7	300
58.72	300
58.74	300
58.76	225
58.78	225
58.8	300
58.82	150
58.84	450
58.86	600
58.88	375
58.9	300
58.92	225
58.94	225
58.96	675
58.98	450
59	300
59.02	300
59.04	450
59.06	375
59.08	150
59.1	300
59.12	300
59.14	375
59.16	300
59.18	450
59.2	300
59.22	225
59.24	150
59.26	375
59.28	300
59.3	150
59.32	225
59.34	375
59.36	0
59.38	150
59.4	75
59.42	375
59.44	300
59.46	300
59.48	225
59.5	675
59.52	225
59.54	525
59.56	150
59.58	75
59.6	75
59.62	300
59.64	225
59.66	600
59.68	375
59.7	225
59.72	225
59.74	300
59.76	300
59.78	675
59.8	825
59.82	600
59.84	300
59.86	450
59.88	600
59.9	450
59.92	150
59.94	300
59.96	225
59.98	375
60	300
60.02	150
60.04	450
60.06	225
60.08	150
60.1	450
60.12	225
60.14	525
60.16	375
60.18	300
60.2	75
60.22	375
60.24	375
60.26	525
60.28	375
60.3	375
60.32	600
60.34	150
60.36	150
60.38	150
60.4	300
60.42	525
60.44	150
60.46	225
60.48	300
60.5	300
60.52	225
60.54	150
60.56	150
60.58	150
60.6	450
60.62	300
60.64	525
60.66	75
60.68	225
60.7	300
60.72	150
60.74	450
60.76	375
60.78	525
60.8	450
60.82	375
60.84	375
60.86	150
60.88	225
60.9	300
60.92	450
60.94	150
60.96	300
60.98	450
61	375
61.02	525
61.04	300
61.06	375
61.08	300
61.1	450
61.12	225
61.14	675
61.16	225
61.18	300
61.2	150
61.22	150
61.24	225
61.26	300
61.28	150
61.3	375
61.32	150
61.34	150
61.36	300
61.38	450
61.4	450
61.42	375
61.44	225
61.46	375
61.48	450
61.5	225
61.52	375
61.54	150
61.56	375
61.58	600
61.6	375
61.62	450
61.64	150
61.66	600
61.68	375
61.7	375
61.72	150
61.74	150
61.76	375
61.78	300
61.8	450
61.82	450
61.84	525
61.86	675
61.88	225
61.9	450
61.92	0
61.94	225
61.96	300
61.98	75
62	525
62.02	300
62.04	450
62.06	300
62.08	150
62.1	450
62.12	525
62.14	600
62.16	375
62.18	75
62.2	75
62.22	300
62.24	300
62.26	525
62.28	375
62.3	150
62.32	150
62.34	375
62.36	150
62.38	150
62.4	225
62.42	300
62.44	300
62.46	150
62.48	300
62.5	225
62.52	450
62.54	150
62.56	525
62.58	75
62.6	225
62.62	375
62.64	300
62.66	225
62.68	450
62.7	300
62.72	450
62.74	300
62.76	225
62.78	225
62.8	225
62.82	300
62.84	375
62.86	225
62.88	450
62.9	675
62.92	450
62.94	225
62.96	150
62.98	450
63	375
63.02	600
63.04	525
63.06	375
63.08	225
63.1	450
63.12	375
63.14	375
63.16	375
63.18	375
63.2	375
63.22	375
63.24	300
63.26	450
63.28	525
63.3	375
63.32	300
63.34	150
63.36	225
63.38	150
63.4	375
63.42	225
63.44	300
63.46	75
63.48	450
63.5	375
63.52	525
63.54	375
63.56	150
63.58	150
63.6	225
63.62	150
63.64	375
63.66	525
63.68	525
63.7	150
63.72	225
63.74	300
63.76	300
63.78	225
63.8	900
63.82	600
63.84	450
63.86	300
63.88	600
63.9	150
63.92	150
63.94	525
63.96	450
63.98	150
64	375
64.02	450
64.04	450
64.06	300
64.08	375
64.1	525
64.12	300
64.14	300
64.16	600
64.18	375
64.2	225
64.22	375
64.24	525
64.26	75
64.28	300
64.3	225
64.32	225
64.34	225
64.36	300
64.38	300
64.4	300
64.42	150
64.44	450
64.46	225
64.48	450
64.5	375
64.52	675
64.54	450
64.56	450
64.58	450
64.6	375
64.62	375
64.64	525
64.66	375
64.68	750
64.7	825
64.72	600
64.74	525
64.76	300
64.78	225
64.8	300
64.82	375
64.84	450
64.86	450
64.88	300
64.9	450
64.92	450
64.94	450
64.96	75
64.98	75
65	225
65.02	450
65.04	450
65.06	150
65.08	300
65.1	600
65.12	450
65.14	300
65.16	75
65.18	75
65.2	225
65.22	450
65.24	300
65.26	675
65.28	525
65.3	675
65.32	450
65.34	375
65.36	300
65.38	225
65.4	600
65.42	150
65.44	375
65.46	525
65.48	450
65.5	300
65.52	525
65.54	300
65.56	375
65.58	150
65.6	75
65.62	600
65.64	450
65.66	450
65.68	375
65.7	300
65.72	525
65.74	525
65.76	150
65.78	150
65.8	225
65.82	300
65.84	375
65.86	300
65.88	375
65.9	525
65.92	225
65.94	450
65.96	225
65.98	375
66	375
66.02	225
66.04	375
66.06	450
66.08	225
66.1	375
66.12	450
66.14	375
66.16	150
66.18	75
66.2	450
66.22	225
66.24	150
66.26	150
66.28	225
66.3	450
66.32	375
66.34	525
66.36	525
66.38	300
66.4	225
66.42	225
66.44	375
66.46	300
66.48	450
66.5	375
66.52	225
66.54	675
66.56	825
66.58	450
66.6	225
66.62	150
66.64	450
66.66	450
66.68	225
66.7	150
66.72	375
66.74	450
66.76	450
66.78	450
66.8	0
66.82	375
66.84	150
66.86	450
66.88	300
66.9	450
66.92	225
66.94	450
66.96	300
66.98	450
67	300
67.02	150
67.04	600
67.06	225
67.08	450
67.1	450
67.12	675
67.14	675
67.16	375
67.18	300
67.2	375
67.22	225
67.24	300
67.26	0
67.28	75
67.3	675
67.32	300
67.34	375
67.36	300
67.38	450
67.4	225
67.42	300
67.44	225
67.46	375
67.48	300
67.5	375
67.52	300
67.54	375
67.56	150
67.58	150
67.6	75
67.62	150
67.64	150
67.66	75
67.68	375
67.7	300
67.72	450
67.74	450
67.76	75
67.78	375
67.8	300
67.82	225
67.84	300
67.86	300
67.88	525
67.9	300
67.92	0
67.94	150
67.96	225
67.98	525
68	450
68.02	525
68.04	225
68.06	525
68.08	225
68.1	150
68.12	450
68.14	675
68.16	375
68.18	300
68.2	300
68.22	300
68.24	225
68.26	150
68.28	75
68.3	300
68.32	150
68.34	525
68.36	525
68.38	150
68.4	450
68.42	450
68.44	375
68.46	300
68.48	300
68.5	150
68.52	75
68.54	75
68.56	300
68.58	300
68.6	225
68.62	225
68.64	225
68.66	375
68.68	225
68.7	300
68.72	375
68.74	300
68.76	375
68.78	375
68.8	525
68.82	450
68.84	375
68.86	150
68.88	225
68.9	450
68.92	300
68.94	525
68.96	450
68.98	300
69	300
69.02	225
69.04	75
69.06	375
69.08	150
69.1	525
69.12	300
69.14	450
69.16	375
69.18	300
69.2	75
69.22	150
69.24	150
69.26	150
69.28	300
69.3	300
69.32	450
69.34	300
69.36	375
69.38	450
69.4	300
69.42	375
69.44	450
69.46	375
69.48	150
69.5	75
69.52	150
69.54	75
69.56	75
69.58	225
69.6	225
69.62	0
69.64	150
69.66	150
69.68	600
69.7	450
69.72	450
69.74	450
69.76	300
69.78	150
69.8	150
69.82	225
69.84	75
69.86	525
69.88	75
69.9	75
69.92	225
69.94	600
69.96	375
69.98	300
70	300
70.02	450
70.04	750
70.06	375
70.08	150
70.1	225
70.12	375
70.14	300
70.16	225
70.18	525
70.2	375
70.22	300
70.24	225
70.26	375
70.28	750
70.3	600
70.32	600
70.34	300
70.36	450
70.38	375
70.4	150
70.42	225
70.44	225
70.46	300
70.48	300
70.5	225
70.52	450
70.54	150
70.56	150
70.58	450
70.6	150
70.62	75
70.64	150
70.66	600
70.68	375
70.7	450
70.72	600
70.74	375
70.76	225
70.78	375
70.8	225
70.82	150
70.84	225
70.86	225
70.88	600
70.9	300
70.92	300
70.94	300
70.96	375
70.98	300
71	375
71.02	375
71.04	375
71.06	150
71.08	375
71.1	225
71.12	450
71.14	300
71.16	300
71.18	450
71.2	600
71.22	225
71.24	300
71.26	375
71.28	375
71.3	525
71.32	450
71.34	525
71.36	375
71.38	150
71.4	300
71.42	150
71.44	150
71.46	75
71.48	150
71.5	225
71.52	150
71.54	150
71.56	150
71.58	225
71.6	300
71.62	300
71.64	300
71.66	450
71.68	600
71.7	300
71.72	525
71.74	225
71.76	525
71.78	150
71.8	225
71.82	225
71.84	450
71.86	225
71.88	525
71.9	225
71.92	375
71.94	300
71.96	225
71.98	300
72	300
72.02	300
72.04	450
72.06	375
72.08	450
72.1	150
72.12	225
72.14	450
72.16	375
72.18	450
72.2	375
72.22	375
72.24	75
72.26	300
72.28	375
72.3	525
72.32	225
72.34	75
72.36	225
72.38	600
72.4	750
72.42	600
72.44	225
72.46	525
72.48	525
72.5	450
72.52	225
72.54	375
72.56	300
72.58	450
72.6	300
72.62	375
72.64	150
72.66	225
72.68	300
72.7	600
72.72	450
72.74	225
72.76	300
72.78	300
72.8	300
72.82	525
72.84	525
72.86	150
72.88	150
72.9	300
72.92	225
72.94	75
72.96	300
72.98	300
73	375
73.02	225
73.04	150
73.06	225
73.08	0
73.1	150
73.12	75
73.14	450
73.16	300
73.18	300
73.2	300
73.22	450
73.24	75
73.26	75
73.28	225
73.3	375
73.32	600
73.34	300
73.36	450
73.38	150
73.4	525
73.42	375
73.44	225
73.46	300
73.48	0
73.5	375
73.52	300
73.54	150
73.56	225
73.58	525
73.6	300
73.62	0
73.64	300
73.66	300
73.68	300
73.7	150
73.72	375
73.74	225
73.76	300
73.78	225
73.8	0
73.82	225
73.84	300
73.86	150
73.88	150
73.9	300
73.92	225
73.94	150
73.96	150
73.98	450
74	150
74.02	525
74.04	225
74.06	225
74.08	150
74.1	225
74.12	150
74.14	300
74.16	375
74.18	375
74.2	225
74.22	150
74.24	300
74.26	525
74.28	300
74.3	225
74.32	150
74.34	75
74.36	0
74.38	150
74.4	150
74.42	75
74.44	150
74.46	150
74.48	225
74.5	225
74.52	150
74.54	150
74.56	150
74.58	225
74.6	375
74.62	225
74.64	0
74.66	375
74.68	375
74.7	300
74.72	300
74.74	375
74.76	225
74.78	300
74.8	150
74.82	300
74.84	300
74.86	225
74.88	150
74.9	375
74.92	150
74.94	225
74.96	150
74.98	300
75	75
75.02	0
75.04	150
75.06	225
75.08	300
75.1	150
75.12	300
75.14	300
75.16	75
75.18	225
75.2	75
75.22	150
75.24	150
75.26	150
75.28	225
75.3	150
75.32	375
75.34	300
75.36	225
75.38	300
75.4	375
75.42	75
75.44	225
75.46	150
75.48	225
75.5	150
75.52	0
75.54	300
75.56	225
75.58	150
75.6	300
75.62	225
75.64	75
75.66	150
75.68	150
75.7	225
75.72	225
75.74	450
75.76	450
75.78	525
75.8	75
75.82	300
75.84	375
75.86	225
75.88	300
75.9	300
75.92	300
75.94	225
75.96	450
75.98	525
76	450
76.02	600
76.04	300
76.06	450
76.08	75
76.1	450
76.12	450
76.14	225
76.16	150
76.18	225
76.2	450
76.22	375
76.24	300
76.26	150
76.28	375
76.3	450
76.32	300
76.34	225
76.36	75
76.38	525
76.4	150
76.42	150
76.44	300
76.46	450
76.48	375
76.5	75
76.52	225
76.54	225
76.56	225
76.58	75
76.6	150
76.62	375
76.64	300
76.66	225
76.68	375
76.7	300
76.72	375
76.74	525
76.76	750
76.78	525
76.8	450
76.82	450
76.84	300
76.86	150
76.88	75
76.9	225
76.92	225
76.94	75
76.96	300
76.98	225
77	75
77.02	300
77.04	225
77.06	75
77.08	150
77.1	75
77.12	300
77.14	150
77.16	450
77.18	525
77.2	300
77.22	600
77.24	450
77.26	600
77.28	450
77.3	225
77.32	525
77.34	525
77.36	150
77.38	300
77.4	225
77.42	300
77.44	150
77.46	75
77.48	225
77.5	375
77.52	300
77.54	450
77.56	300
77.58	375
77.6	450
77.62	225
77.64	375
77.66	300
77.68	225
77.7	225
77.72	375
77.74	150
77.76	375
77.78	375
77.8	300
77.82	450
77.84	525
77.86	225
77.88	225
77.9	300
77.92	300
77.94	150
77.96	300
77.98	225
78	150
78.02	375
78.04	300
78.06	225
78.08	225
78.1	0
78.12	150
78.14	225
78.16	225
78.18	375
78.2	450
78.22	375
78.24	300
78.26	150
78.28	375
78.3	300
78.32	450
78.34	225
78.36	225
78.38	225
78.4	150
78.42	225
78.44	300
78.46	150
78.48	525
78.5	0
78.52	75
78.54	300
78.56	150
78.58	225
78.6	225
78.62	225
78.64	450
78.66	150
78.68	450
78.7	750
78.72	525
78.74	150
78.76	150
78.78	225
78.8	300
78.82	375
78.84	225
78.86	225
78.88	225
78.9	450
78.92	375
78.94	450
78.96	225
78.98	375
79	450
79.02	375
79.04	300
79.06	75
79.08	75
79.1	300
79.12	225
79.14	300
79.16	150
79.18	75
79.2	150
79.22	375
79.24	300
79.26	300
79.28	75
79.3	375
79.32	225
79.34	225
79.36	75
79.38	450
79.4	375
79.42	150
79.44	225
79.46	300
79.48	150
79.5	375
79.52	300
79.54	225
79.56	375
79.58	75
79.6	225
79.62	375
79.64	300
79.66	150
79.68	225
79.7	150
79.72	150
79.74	0
79.76	225
79.78	225
79.8	225
79.82	150
79.84	75
79.86	225
79.88	300
79.9	150
79.92	150
79.94	300
79.96	375
79.98	300
80	525
80.02	450
80.04	225
80.06	450
80.08	225
80.1	225
80.12	225
80.14	375
80.16	75
80.18	150
80.2	225
80.22	150
80.24	150
80.26	225
80.28	225
80.3	225
80.32	375
80.34	75
80.36	525
80.38	600
80.4	150
80.42	75
80.44	300
80.46	375
80.48	375
80.5	150
80.52	375
80.54	75
80.56	225
80.58	75
80.6	300
80.62	0
80.64	150
80.66	150
80.68	450
80.7	75
80.72	0
80.74	300
80.76	225
80.78	225
80.8	225
80.82	300
80.84	150
80.86	150
80.88	300
80.9	225
80.92	375
80.94	300
80.96	225
80.98	150
81	225
81.02	300
81.04	150
81.06	150
81.08	75
81.1	225
81.12	375
81.14	150
81.16	75
81.18	75
81.2	75
81.22	0
81.24	0
81.26	150
81.28	150
81.3	0
81.32	75
81.34	225
81.36	75
81.38	150
81.4	225
81.42	525
81.44	75
81.46	225
81.48	300
81.5	300
81.52	375
81.54	375
81.56	150
81.58	150
81.6	0
81.62	225
81.64	225
81.66	300
81.68	300
81.7	150
81.72	375
81.74	375
81.76	150
81.78	225
81.8	375
81.82	450
81.84	750
81.86	525
81.88	300
81.9	450
81.92	225
81.94	375
81.96	225
81.98	525
82	300
82.02	525
82.04	375
82.06	300
82.08	375
82.1	450
82.12	300
82.14	375
82.16	150
82.18	300
82.2	300
82.22	225
82.24	225
82.26	150
82.28	375
82.3	525
82.32	75
82.34	75
82.36	300
82.38	75
82.4	0
82.42	225
82.44	75
82.46	150
82.48	75
82.5	225
82.52	150
82.54	225
82.56	375
82.58	225
82.6	150
82.62	300
82.64	375
82.66	450
82.68	300
82.7	300
82.72	300
82.74	225
82.76	0
82.78	75
82.8	225
82.82	375
82.84	150
82.86	150
82.88	75
82.9	150
82.92	0
82.94	300
82.96	225
82.98	150
83	225
83.02	225
83.04	150
83.06	0
83.08	75
83.1	150
83.12	75
83.14	75
83.16	0
83.18	0
83.2	300
83.22	75
83.24	225
83.26	150
83.28	150
83.3	225
83.32	300
83.34	150
83.36	225
83.38	75
83.4	150
83.42	0
83.44	375
83.46	0
83.48	225
83.5	600
83.52	525
83.54	375
83.56	75
83.58	75
83.6	150
83.62	300
83.64	150
83.66	300
83.68	75
83.7	375
83.72	75
83.74	150
83.76	75
83.78	225
83.8	150
83.82	75
83.84	75
83.86	0
83.88	450
83.9	225
83.92	150
83.94	225
83.96	150
83.98	300
84	75
84.02	300
84.04	300
84.06	150
84.08	75
84.1	150
84.12	450
84.14	75
84.16	75
84.18	150
84.2	600
84.22	225
84.24	225
84.26	0
84.28	450
84.3	150
84.32	0
84.34	0
84.36	225
84.38	150
84.4	75
84.42	150
84.44	300
84.46	150
84.48	75
84.5	75
84.52	225
84.54	225
84.56	450
84.58	225
84.6	75
84.62	225
84.64	225
84.66	525
84.68	375
84.7	300
84.72	375
84.74	150
84.76	600
84.78	300
84.8	0
84.82	300
84.84	150
84.86	75
84.88	225
84.9	300
84.92	150
84.94	150
84.96	375
84.98	300
85	150
85.02	300
85.04	450
85.06	225
85.08	150
85.1	525
85.12	300
85.14	75
85.16	300
85.18	225
85.2	300
85.22	75
85.24	150
85.26	225
85.28	375
85.3	300
85.32	225
85.34	300
85.36	75
85.38	225
85.4	225
85.42	300
85.44	0
85.46	75
85.48	375
85.5	225
85.52	225
85.54	225
85.56	225
85.58	150
85.6	525
85.62	300
85.64	75
85.66	150
85.68	150
85.7	150
85.72	75
85.74	150
85.76	300
85.78	300
85.8	225
85.82	75
85.84	300
85.86	450
85.88	150
85.9	75
85.92	0
85.94	150
85.96	300
85.98	225
86	75
86.02	225
86.04	150
86.06	225
86.08	300
86.1	150
86.12	150
86.14	300
86.16	225
86.18	300
86.2	0
86.22	300
86.24	450
86.26	150
86.28	300
86.3	300
86.32	225
86.34	375
86.36	150
86.38	75
86.4	75
86.42	150
86.44	225
86.46	150
86.48	150
86.5	225
86.52	300
86.54	450
86.56	0
86.58	0
86.6	0
86.62	150
86.64	150
86.66	225
86.68	150
86.7	375
86.72	75
86.74	225
86.76	225
86.78	150
86.8	300
86.82	150
86.84	225
86.86	0
86.88	0
86.9	75
86.92	225
86.94	0
86.96	0
86.98	225
87	225
87.02	150
87.04	150
87.06	75
87.08	150
87.1	225
87.12	150
87.14	375
87.16	300
87.18	225
87.2	150
87.22	300
87.24	150
87.26	300
87.28	75
87.3	150
87.32	300
87.34	75
87.36	225
87.38	225
87.4	150
87.42	300
87.44	75
87.46	450
87.48	150
87.5	150
87.52	225
87.54	300
87.56	150
87.58	300
87.6	150
87.62	450
87.64	75
87.66	150
87.68	0
87.7	150
87.72	225
87.74	225
87.76	75
87.78	225
87.8	150
87.82	225
87.84	225
87.86	75
87.88	225
87.9	300
87.92	225
87.94	0
87.96	150
87.98	450
88	225
88.02	150
88.04	225
88.06	300
88.08	150
88.1	150
88.12	150
88.14	75
88.16	75
88.18	150
88.2	375
88.22	150
88.24	75
88.26	150
88.28	375
88.3	225
88.32	0
88.34	75
88.36	75
88.38	225
88.4	150
88.42	525
88.44	150
88.46	225
88.48	150
88.5	150
88.52	225
88.54	150
88.56	75
88.58	0
88.6	75
88.62	225
88.64	75
88.66	0
88.68	75
88.7	300
88.72	150
88.74	150
88.76	0
88.78	0
88.8	150
88.82	450
88.84	225
88.86	225
88.88	225
88.9	225
88.92	225
88.94	150
88.96	150
88.98	0
89	75
89.02	150
89.04	300
89.06	300
89.08	225
89.1	225
89.12	225
89.14	300
89.16	225
89.18	150
89.2	0
89.22	75
89.24	375
89.26	150
89.28	225
89.3	450
89.32	0
89.34	150
89.36	375
89.38	300
89.4	150
89.42	225
89.44	450
89.46	0
89.48	75
89.5	150
89.52	375
89.54	75
89.56	225
89.58	375
89.6	300
89.62	225
89.64	300
89.66	150
89.68	75
89.7	75
89.72	600
89.74	300
89.76	300
89.78	300
89.8	375
89.82	300
89.84	225
89.86	225
89.88	675
89.9	75
89.92	75
89.94	375
89.96	150
89.98	300
90	300

