Sample	 
Comments	 
Filename	G:\ceshi\20230223\wangjun410-03.22\fe3o4_Theta_2-Theta.raw

Goniometer	MiniFlex 300/600
Attachment	Air-sensitive Sample Holder
Monochromater	None

X	0
Y	0
Z	0
10	150
10.02	375
10.04	750
10.06	450
10.08	600
10.1	300
10.12	150
10.14	450
10.16	975
10.18	450
10.2	450
10.22	825
10.24	375
10.26	600
10.28	600
10.3	300
10.32	300
10.34	600
10.36	375
10.38	300
10.4	300
10.42	150
10.44	600
10.46	300
10.48	300
10.5	375
10.52	525
10.54	375
10.56	600
10.58	375
10.6	450
10.62	375
10.64	600
10.66	450
10.68	375
10.7	225
10.72	150
10.74	375
10.76	525
10.78	300
10.8	900
10.82	450
10.84	75
10.86	225
10.88	450
10.9	750
10.92	750
10.94	375
10.96	900
10.98	675
11	750
11.02	375
11.04	750
11.06	375
11.08	450
11.1	600
11.12	75
11.14	225
11.16	150
11.18	75
11.2	150
11.22	300
11.24	375
11.26	300
11.28	450
11.3	300
11.32	675
11.34	525
11.36	450
11.38	225
11.4	525
11.42	525
11.44	375
11.46	375
11.48	375
11.5	300
11.52	300
11.54	225
11.56	450
11.58	525
11.6	225
11.62	225
11.64	450
11.66	375
11.68	225
11.7	300
11.72	75
11.74	525
11.76	750
11.78	225
11.8	225
11.82	225
11.84	375
11.86	375
11.88	375
11.9	450
11.92	300
11.94	525
11.96	375
11.98	450
12	600
12.02	600
12.04	825
12.06	975
12.08	300
12.1	300
12.12	300
12.14	825
12.16	375
12.18	450
12.2	225
12.22	450
12.24	300
12.26	300
12.28	300
12.3	375
12.32	450
12.34	675
12.36	900
12.38	750
12.4	225
12.42	450
12.44	75
12.46	375
12.48	525
12.5	900
12.52	675
12.54	525
12.56	525
12.58	525
12.6	225
12.62	450
12.64	150
12.66	300
12.68	600
12.7	300
12.72	375
12.74	525
12.76	600
12.78	300
12.8	375
12.82	300
12.84	300
12.86	225
12.88	300
12.9	375
12.92	300
12.94	375
12.96	225
12.98	225
13	225
13.02	600
13.04	525
13.06	225
13.08	0
13.1	300
13.12	525
13.14	375
13.16	150
13.18	150
13.2	375
13.22	450
13.24	600
13.26	600
13.28	150
13.3	225
13.32	225
13.34	900
13.36	450
13.38	525
13.4	375
13.42	675
13.44	600
13.46	525
13.48	600
13.5	750
13.52	750
13.54	975
13.56	750
13.58	525
13.6	375
13.62	375
13.64	300
13.66	375
13.68	375
13.7	600
13.72	525
13.74	450
13.76	450
13.78	375
13.8	600
13.82	300
13.84	600
13.86	750
13.88	450
13.9	900
13.92	525
13.94	525
13.96	300
13.98	525
14	225
14.02	525
14.04	600
14.06	375
14.08	450
14.1	450
14.12	300
14.14	600
14.16	300
14.18	750
14.2	375
14.22	225
14.24	300
14.26	150
14.28	525
14.3	375
14.32	825
14.34	375
14.36	150
14.38	750
14.4	900
14.42	450
14.44	675
14.46	450
14.48	375
14.5	150
14.52	525
14.54	450
14.56	600
14.58	600
14.6	525
14.62	450
14.64	600
14.66	525
14.68	675
14.7	450
14.72	300
14.74	375
14.76	450
14.78	450
14.8	450
14.82	675
14.84	375
14.86	300
14.88	300
14.9	300
14.92	750
14.94	75
14.96	450
14.98	750
15	525
15.02	900
15.04	525
15.06	525
15.08	450
15.1	525
15.12	600
15.14	450
15.16	600
15.18	825
15.2	825
15.22	600
15.24	450
15.26	450
15.28	600
15.3	825
15.32	450
15.34	450
15.36	375
15.38	750
15.4	225
15.42	375
15.44	300
15.46	375
15.48	900
15.5	450
15.52	150
15.54	675
15.56	450
15.58	300
15.6	525
15.62	525
15.64	750
15.66	1125
15.68	525
15.7	825
15.72	825
15.74	375
15.76	375
15.78	300
15.8	675
15.82	525
15.84	525
15.86	375
15.88	375
15.9	750
15.92	675
15.94	150
15.96	225
15.98	225
16	300
16.02	750
16.04	675
16.06	525
16.08	300
16.1	375
16.12	450
16.14	375
16.16	900
16.18	375
16.2	300
16.22	825
16.24	825
16.26	675
16.28	600
16.3	450
16.32	150
16.34	150
16.36	375
16.38	450
16.4	450
16.42	600
16.44	525
16.46	225
16.48	375
16.5	225
16.52	675
16.54	1200
16.56	450
16.58	375
16.6	450
16.62	225
16.64	525
16.66	675
16.68	750
16.7	150
16.72	375
16.74	600
16.76	675
16.78	300
16.8	450
16.82	150
16.84	300
16.86	375
16.88	225
16.9	975
16.92	825
16.94	300
16.96	525
16.98	600
17	675
17.02	750
17.04	600
17.06	525
17.08	450
17.1	525
17.12	675
17.14	450
17.16	525
17.18	600
17.2	450
17.22	600
17.24	1050
17.26	450
17.28	600
17.3	750
17.32	375
17.34	600
17.36	450
17.38	150
17.4	525
17.42	1050
17.44	225
17.46	600
17.48	750
17.5	450
17.52	600
17.54	450
17.56	525
17.58	450
17.6	450
17.62	525
17.64	375
17.66	675
17.68	675
17.7	600
17.72	525
17.74	450
17.76	300
17.78	225
17.8	375
17.82	750
17.84	750
17.86	525
17.88	375
17.9	450
17.92	600
17.94	825
17.96	675
17.98	525
18	750
18.02	1050
18.04	525
18.06	450
18.08	450
18.1	600
18.12	750
18.14	600
18.16	375
18.18	525
18.2	225
18.22	975
18.24	900
18.26	750
18.28	450
18.3	600
18.32	525
18.34	675
18.36	450
18.38	450
18.4	750
18.42	375
18.44	900
18.46	1125
18.48	750
18.5	750
18.52	450
18.54	675
18.56	375
18.58	600
18.6	450
18.62	675
18.64	450
18.66	525
18.68	375
18.7	525
18.72	825
18.74	750
18.76	750
18.78	600
18.8	750
18.82	600
18.84	750
18.86	375
18.88	900
18.9	375
18.92	225
18.94	750
18.96	900
18.98	600
19	675
19.02	900
19.04	600
19.06	600
19.08	600
19.1	600
19.12	750
19.14	900
19.16	450
19.18	750
19.2	450
19.22	300
19.24	675
19.26	825
19.28	600
19.3	525
19.32	525
19.34	525
19.36	750
19.38	750
19.4	600
19.42	825
19.44	600
19.46	1125
19.48	1050
19.5	675
19.52	600
19.54	750
19.56	375
19.58	1200
19.6	975
19.62	675
19.64	900
19.66	600
19.68	825
19.7	1050
19.72	525
19.74	450
19.76	525
19.78	525
19.8	375
19.82	1125
19.84	825
19.86	450
19.88	225
19.9	450
19.92	300
19.94	825
19.96	375
19.98	825
20	600
20.02	450
20.04	675
20.06	600
20.08	750
20.1	825
20.12	600
20.14	600
20.16	300
20.18	675
20.2	825
20.22	1350
20.24	600
20.26	225
20.28	750
20.3	750
20.32	600
20.34	900
20.36	750
20.38	525
20.4	1200
20.42	750
20.44	1125
20.46	675
20.48	300
20.5	825
20.52	975
20.54	750
20.56	1050
20.58	825
20.6	450
20.62	750
20.64	900
20.66	450
20.68	600
20.7	600
20.72	525
20.74	975
20.76	825
20.78	525
20.8	600
20.82	525
20.84	675
20.86	900
20.88	600
20.9	825
20.92	675
20.94	750
20.96	1275
20.98	900
21	600
21.02	750
21.04	675
21.06	750
21.08	675
21.1	825
21.12	1500
21.14	825
21.16	825
21.18	975
21.2	750
21.22	675
21.24	825
21.26	675
21.28	600
21.3	825
21.32	975
21.34	975
21.36	1275
21.38	900
21.4	600
21.42	750
21.44	1200
21.46	825
21.48	825
21.5	900
21.52	750
21.54	1500
21.56	1050
21.58	1200
21.6	750
21.62	300
21.64	225
21.66	1125
21.68	675
21.7	825
21.72	825
21.74	825
21.76	900
21.78	900
21.8	450
21.82	750
21.84	675
21.86	900
21.88	300
21.9	900
21.92	1125
21.94	450
21.96	975
21.98	825
22	1200
22.02	1050
22.04	1350
22.06	1350
22.08	600
22.1	1125
22.12	600
22.14	525
22.16	750
22.18	975
22.2	600
22.22	525
22.24	1050
22.26	675
22.28	825
22.3	675
22.32	600
22.34	825
22.36	750
22.38	750
22.4	825
22.42	675
22.44	525
22.46	300
22.48	600
22.5	525
22.52	675
22.54	525
22.56	975
22.58	750
22.6	975
22.62	600
22.64	1125
22.66	825
22.68	600
22.7	450
22.72	750
22.74	825
22.76	825
22.78	825
22.8	1200
22.82	1050
22.84	675
22.86	750
22.88	675
22.9	750
22.92	300
22.94	675
22.96	600
22.98	375
23	375
23.02	675
23.04	900
23.06	675
23.08	750
23.1	825
23.12	825
23.14	600
23.16	600
23.18	375
23.2	375
23.22	525
23.24	825
23.26	1050
23.28	1125
23.3	675
23.32	675
23.34	975
23.36	825
23.38	525
23.4	600
23.42	825
23.44	675
23.46	600
23.48	675
23.5	525
23.52	600
23.54	825
23.56	900
23.58	450
23.6	525
23.62	900
23.64	975
23.66	825
23.68	675
23.7	825
23.72	1350
23.74	975
23.76	750
23.78	900
23.8	1200
23.82	1050
23.84	900
23.86	900
23.88	1425
23.9	675
23.92	825
23.94	975
23.96	675
23.98	450
24	825
24.02	825
24.04	975
24.06	1125
24.08	1275
24.1	900
24.12	1050
24.14	1050
24.16	1350
24.18	1050
24.2	825
24.22	1050
24.24	750
24.26	1125
24.28	825
24.3	300
24.32	525
24.34	750
24.36	975
24.38	675
24.4	825
24.42	450
24.44	750
24.46	975
24.48	675
24.5	750
24.52	750
24.54	1050
24.56	825
24.58	825
24.6	675
24.62	1050
24.64	825
24.66	675
24.68	675
24.7	600
24.72	450
24.74	750
24.76	900
24.78	375
24.8	1125
24.82	975
24.84	1125
24.86	600
24.88	525
24.9	525
24.92	450
24.94	675
24.96	750
24.98	525
25	525
25.02	525
25.04	750
25.06	525
25.08	900
25.1	975
25.12	750
25.14	825
25.16	600
25.18	750
25.2	450
25.22	600
25.24	225
25.26	600
25.28	825
25.3	750
25.32	825
25.34	675
25.36	375
25.38	525
25.4	825
25.42	1050
25.44	675
25.46	750
25.48	600
25.5	375
25.52	375
25.54	975
25.56	675
25.58	750
25.6	1350
25.62	525
25.64	525
25.66	300
25.68	450
25.7	600
25.72	525
25.74	600
25.76	750
25.78	300
25.8	375
25.82	750
25.84	450
25.86	375
25.88	375
25.9	525
25.92	525
25.94	525
25.96	450
25.98	750
26	525
26.02	675
26.04	600
26.06	825
26.08	675
26.1	525
26.12	600
26.14	525
26.16	825
26.18	1200
26.2	1200
26.22	750
26.24	675
26.26	525
26.28	750
26.3	900
26.32	1050
26.34	975
26.36	450
26.38	300
26.4	150
26.42	375
26.44	675
26.46	525
26.48	1050
26.5	975
26.52	450
26.54	375
26.56	525
26.58	1125
26.6	750
26.62	975
26.64	600
26.66	375
26.68	675
26.7	825
26.72	375
26.74	300
26.76	600
26.78	525
26.8	975
26.82	525
26.84	525
26.86	600
26.88	225
26.9	525
26.92	525
26.94	525
26.96	900
26.98	750
27	750
27.02	750
27.04	750
27.06	600
27.08	300
27.1	450
27.12	975
27.14	450
27.16	675
27.18	450
27.2	1125
27.22	900
27.24	300
27.26	600
27.28	375
27.3	450
27.32	675
27.34	750
27.36	825
27.38	900
27.4	750
27.42	825
27.44	825
27.46	600
27.48	975
27.5	450
27.52	975
27.54	750
27.56	600
27.58	375
27.6	675
27.62	675
27.64	675
27.66	375
27.68	375
27.7	600
27.72	675
27.74	675
27.76	525
27.78	1050
27.8	600
27.82	525
27.84	450
27.86	300
27.88	525
27.9	750
27.92	375
27.94	300
27.96	450
27.98	825
28	525
28.02	600
28.04	300
28.06	1200
28.08	825
28.1	825
28.12	750
28.14	675
28.16	750
28.18	675
28.2	525
28.22	150
28.24	300
28.26	525
28.28	450
28.3	525
28.32	225
28.34	525
28.36	750
28.38	750
28.4	1275
28.42	600
28.44	375
28.46	450
28.48	225
28.5	450
28.52	675
28.54	675
28.56	300
28.58	375
28.6	525
28.62	525
28.64	1050
28.66	525
28.68	150
28.7	300
28.72	525
28.74	525
28.76	525
28.78	450
28.8	900
28.82	825
28.84	825
28.86	375
28.88	375
28.9	450
28.92	450
28.94	675
28.96	600
28.98	900
29	675
29.02	600
29.04	450
29.06	450
29.08	750
29.1	450
29.12	600
29.14	600
29.16	525
29.18	375
29.2	600
29.22	525
29.24	675
29.26	525
29.28	300
29.3	375
29.32	375
29.34	525
29.36	300
29.38	450
29.4	450
29.42	450
29.44	525
29.46	300
29.48	675
29.5	600
29.52	450
29.54	225
29.56	150
29.58	450
29.6	300
29.62	450
29.64	450
29.66	225
29.68	375
29.7	600
29.72	675
29.74	375
29.76	225
29.78	525
29.8	750
29.82	450
29.84	375
29.86	525
29.88	675
29.9	375
29.92	300
29.94	375
29.96	450
29.98	525
30	600
30.02	675
30.04	150
30.06	375
30.08	600
30.1	900
30.12	675
30.14	450
30.16	750
30.18	450
30.2	225
30.22	525
30.24	600
30.26	300
30.28	150
30.3	525
30.32	600
30.34	525
30.36	600
30.38	375
30.4	675
30.42	300
30.44	450
30.46	225
30.48	450
30.5	375
30.52	450
30.54	675
30.56	525
30.58	525
30.6	525
30.62	525
30.64	375
30.66	375
30.68	675
30.7	450
30.72	450
30.74	375
30.76	525
30.78	825
30.8	300
30.82	975
30.84	600
30.86	300
30.88	300
30.9	525
30.92	150
30.94	300
30.96	525
30.98	675
31	525
31.02	600
31.04	525
31.06	375
31.08	525
31.1	600
31.12	600
31.14	225
31.16	975
31.18	375
31.2	375
31.22	225
31.24	375
31.26	825
31.28	375
31.3	375
31.32	375
31.34	675
31.36	525
31.38	300
31.4	300
31.42	225
31.44	150
31.46	450
31.48	750
31.5	450
31.52	225
31.54	300
31.56	375
31.58	525
31.6	450
31.62	450
31.64	450
31.66	300
31.68	375
31.7	375
31.72	225
31.74	300
31.76	525
31.78	375
31.8	375
31.82	225
31.84	150
31.86	150
31.88	525
31.9	225
31.92	225
31.94	300
31.96	300
31.98	675
32	375
32.02	600
32.04	525
32.06	600
32.08	225
32.1	375
32.12	300
32.14	450
32.16	675
32.18	525
32.2	600
32.22	675
32.24	525
32.26	525
32.28	300
32.3	375
32.32	225
32.34	375
32.36	375
32.38	675
32.4	750
32.42	375
32.44	600
32.46	975
32.48	450
32.5	525
32.52	1050
32.54	750
32.56	525
32.58	750
32.6	825
32.62	375
32.64	600
32.66	450
32.68	900
32.7	375
32.72	825
32.74	450
32.76	675
32.78	900
32.8	750
32.82	1500
32.84	1500
32.86	1200
32.88	1200
32.9	900
32.92	1200
32.94	1350
32.96	1275
32.98	1650
33	1575
33.02	2025
33.04	2100
33.06	1875
33.08	1800
33.1	2625
33.12	2550
33.14	2175
33.16	1725
33.18	1800
33.2	2025
33.22	2100
33.24	1275
33.26	1425
33.28	1575
33.3	1050
33.32	1350
33.34	1500
33.36	1425
33.38	1275
33.4	1275
33.42	1275
33.44	675
33.46	750
33.48	900
33.5	1200
33.52	750
33.54	600
33.56	825
33.58	675
33.6	900
33.62	750
33.64	600
33.66	675
33.68	75
33.7	600
33.72	450
33.74	375
33.76	450
33.78	525
33.8	450
33.82	600
33.84	525
33.86	675
33.88	600
33.9	225
33.92	75
33.94	525
33.96	825
33.98	600
34	750
34.02	750
34.04	375
34.06	450
34.08	375
34.1	375
34.12	450
34.14	450
34.16	600
34.18	600
34.2	825
34.22	600
34.24	300
34.26	225
34.28	225
34.3	300
34.32	300
34.34	525
34.36	675
34.38	600
34.4	375
34.42	600
34.44	825
34.46	375
34.48	525
34.5	450
34.52	600
34.54	375
34.56	375
34.58	375
34.6	300
34.62	150
34.64	600
34.66	450
34.68	750
34.7	300
34.72	450
34.74	600
34.76	750
34.78	300
34.8	825
34.82	675
34.84	525
34.86	525
34.88	525
34.9	450
34.92	675
34.94	225
34.96	225
34.98	525
35	675
35.02	300
35.04	450
35.06	300
35.08	525
35.1	450
35.12	525
35.14	525
35.16	600
35.18	375
35.2	450
35.22	600
35.24	675
35.26	675
35.28	1050
35.3	900
35.32	1200
35.34	1050
35.36	825
35.38	1125
35.4	1050
35.42	1425
35.44	1500
35.46	1050
35.48	1125
35.5	1200
35.52	1275
35.54	1425
35.56	1500
35.58	1650
35.6	1950
35.62	1650
35.64	1500
35.66	975
35.68	825
35.7	1875
35.72	1425
35.74	750
35.76	750
35.78	975
35.8	1500
35.82	975
35.84	1200
35.86	1275
35.88	825
35.9	975
35.92	825
35.94	525
35.96	750
35.98	750
36	525
36.02	825
36.04	750
36.06	675
36.08	600
36.1	600
36.12	450
36.14	450
36.16	225
36.18	300
36.2	525
36.22	900
36.24	600
36.26	75
36.28	675
36.3	675
36.32	525
36.34	675
36.36	300
36.38	375
36.4	375
36.42	525
36.44	450
36.46	375
36.48	525
36.5	300
36.52	525
36.54	750
36.56	375
36.58	1050
36.6	750
36.62	375
36.64	525
36.66	600
36.68	300
36.7	300
36.72	525
36.74	375
36.76	150
36.78	375
36.8	600
36.82	450
36.84	750
36.86	675
36.88	450
36.9	600
36.92	450
36.94	375
36.96	600
36.98	675
37	525
37.02	300
37.04	525
37.06	525
37.08	225
37.1	375
37.12	300
37.14	375
37.16	300
37.18	300
37.2	375
37.22	675
37.24	600
37.26	225
37.28	300
37.3	450
37.32	375
37.34	375
37.36	600
37.38	525
37.4	225
37.42	150
37.44	750
37.46	750
37.48	525
37.5	375
37.52	375
37.54	375
37.56	375
37.58	675
37.6	450
37.62	450
37.64	525
37.66	375
37.68	525
37.7	150
37.72	300
37.74	225
37.76	150
37.78	375
37.8	225
37.82	375
37.84	450
37.86	375
37.88	300
37.9	750
37.92	300
37.94	75
37.96	300
37.98	375
38	525
38.02	450
38.04	450
38.06	375
38.08	675
38.1	300
38.12	150
38.14	450
38.16	525
38.18	525
38.2	225
38.22	225
38.24	225
38.26	450
38.28	450
38.3	975
38.32	375
38.34	375
38.36	450
38.38	450
38.4	300
38.42	600
38.44	750
38.46	375
38.48	450
38.5	150
38.52	450
38.54	150
38.56	525
38.58	300
38.6	525
38.62	525
38.64	225
38.66	375
38.68	300
38.7	450
38.72	225
38.74	225
38.76	225
38.78	525
38.8	675
38.82	525
38.84	450
38.86	375
38.88	450
38.9	750
38.92	600
38.94	525
38.96	0
38.98	450
39	450
39.02	450
39.04	300
39.06	525
39.08	450
39.1	525
39.12	600
39.14	450
39.16	525
39.18	375
39.2	150
39.22	300
39.24	750
39.26	375
39.28	150
39.3	825
39.32	600
39.34	525
39.36	675
39.38	600
39.4	375
39.42	600
39.44	525
39.46	825
39.48	675
39.5	750
39.52	750
39.54	750
39.56	750
39.58	600
39.6	375
39.62	150
39.64	225
39.66	300
39.68	225
39.7	225
39.72	75
39.74	375
39.76	450
39.78	375
39.8	375
39.82	450
39.84	300
39.86	450
39.88	300
39.9	450
39.92	375
39.94	150
39.96	375
39.98	150
40	75
40.02	675
40.04	225
40.06	225
40.08	300
40.1	375
40.12	300
40.14	375
40.16	375
40.18	225
40.2	225
40.22	0
40.24	450
40.26	450
40.28	375
40.3	600
40.32	300
40.34	300
40.36	450
40.38	300
40.4	375
40.42	600
40.44	450
40.46	225
40.48	450
40.5	450
40.52	225
40.54	600
40.56	375
40.58	825
40.6	450
40.62	225
40.64	525
40.66	750
40.68	675
40.7	225
40.72	675
40.74	600
40.76	825
40.78	600
40.8	450
40.82	975
40.84	675
40.86	675
40.88	675
40.9	375
40.92	975
40.94	750
40.96	675
40.98	450
41	450
41.02	600
41.04	450
41.06	600
41.08	525
41.1	675
41.12	750
41.14	450
41.16	600
41.18	375
41.2	525
41.22	750
41.24	450
41.26	450
41.28	375
41.3	450
41.32	300
41.34	525
41.36	150
41.38	150
41.4	300
41.42	900
41.44	450
41.46	525
41.48	300
41.5	75
41.52	300
41.54	300
41.56	375
41.58	900
41.6	300
41.62	525
41.64	675
41.66	600
41.68	450
41.7	750
41.72	225
41.74	525
41.76	825
41.78	600
41.8	300
41.82	525
41.84	450
41.86	375
41.88	150
41.9	225
41.92	300
41.94	525
41.96	375
41.98	675
42	225
42.02	375
42.04	300
42.06	525
42.08	525
42.1	300
42.12	750
42.14	525
42.16	150
42.18	225
42.2	375
42.22	375
42.24	75
42.26	225
42.28	975
42.3	450
42.32	225
42.34	375
42.36	225
42.38	450
42.4	750
42.42	525
42.44	375
42.46	300
42.48	375
42.5	525
42.52	300
42.54	1050
42.56	450
42.58	525
42.6	675
42.62	375
42.64	300
42.66	300
42.68	525
42.7	150
42.72	300
42.74	225
42.76	375
42.78	450
42.8	450
42.82	150
42.84	150
42.86	300
42.88	450
42.9	450
42.92	375
42.94	300
42.96	300
42.98	300
43	450
43.02	525
43.04	300
43.06	150
43.08	600
43.1	750
43.12	300
43.14	450
43.16	600
43.18	300
43.2	300
43.22	375
43.24	300
43.26	150
43.28	300
43.3	225
43.32	525
43.34	525
43.36	300
43.38	750
43.4	600
43.42	450
43.44	375
43.46	525
43.48	525
43.5	375
43.52	525
43.54	525
43.56	525
43.58	450
43.6	225
43.62	300
43.64	675
43.66	225
43.68	525
43.7	150
43.72	0
43.74	75
43.76	450
43.78	450
43.8	375
43.82	450
43.84	450
43.86	825
43.88	900
43.9	675
43.92	375
43.94	750
43.96	750
43.98	375
44	150
44.02	150
44.04	375
44.06	225
44.08	300
44.1	525
44.12	300
44.14	300
44.16	225
44.18	750
44.2	300
44.22	300
44.24	450
44.26	525
44.28	600
44.3	450
44.32	600
44.34	600
44.36	375
44.38	450
44.4	600
44.42	450
44.44	300
44.46	225
44.48	450
44.5	150
44.52	450
44.54	825
44.56	675
44.58	600
44.6	375
44.62	600
44.64	300
44.66	375
44.68	600
44.7	375
44.72	450
44.74	225
44.76	300
44.78	225
44.8	150
44.82	300
44.84	225
44.86	75
44.88	75
44.9	525
44.92	75
44.94	525
44.96	450
44.98	375
45	450
45.02	225
45.04	450
45.06	375
45.08	450
45.1	375
45.12	300
45.14	375
45.16	450
45.18	300
45.2	225
45.22	375
45.24	450
45.26	900
45.28	375
45.3	525
45.32	450
45.34	600
45.36	525
45.38	225
45.4	75
45.42	825
45.44	375
45.46	375
45.48	900
45.5	225
45.52	300
45.54	600
45.56	450
45.58	375
45.6	450
45.62	150
45.64	150
45.66	150
45.68	600
45.7	375
45.72	150
45.74	300
45.76	300
45.78	600
45.8	375
45.82	375
45.84	450
45.86	375
45.88	300
45.9	225
45.92	300
45.94	450
45.96	450
45.98	450
46	150
46.02	225
46.04	450
46.06	225
46.08	450
46.1	75
46.12	150
46.14	225
46.16	225
46.18	450
46.2	750
46.22	75
46.24	600
46.26	600
46.28	375
46.3	225
46.32	525
46.34	450
46.36	450
46.38	300
46.4	450
46.42	225
46.44	300
46.46	750
46.48	450
46.5	450
46.52	375
46.54	225
46.56	375
46.58	600
46.6	75
46.62	600
46.64	525
46.66	225
46.68	150
46.7	75
46.72	300
46.74	600
46.76	825
46.78	525
46.8	600
46.82	375
46.84	300
46.86	300
46.88	300
46.9	375
46.92	600
46.94	375
46.96	600
46.98	225
47	450
47.02	450
47.04	225
47.06	300
47.08	300
47.1	375
47.12	225
47.14	150
47.16	300
47.18	300
47.2	450
47.22	75
47.24	375
47.26	600
47.28	300
47.3	450
47.32	300
47.34	450
47.36	300
47.38	225
47.4	375
47.42	375
47.44	375
47.46	300
47.48	225
47.5	600
47.52	300
47.54	225
47.56	300
47.58	450
47.6	225
47.62	300
47.64	600
47.66	450
47.68	600
47.7	600
47.72	675
47.74	375
47.76	450
47.78	450
47.8	450
47.82	450
47.84	375
47.86	675
47.88	525
47.9	450
47.92	300
47.94	375
47.96	375
47.98	300
48	525
48.02	525
48.04	525
48.06	450
48.08	150
48.1	225
48.12	450
48.14	450
48.16	375
48.18	825
48.2	450
48.22	450
48.24	525
48.26	300
48.28	375
48.3	375
48.32	300
48.34	375
48.36	675
48.38	300
48.4	375
48.42	450
48.44	375
48.46	300
48.48	375
48.5	375
48.52	225
48.54	300
48.56	75
48.58	225
48.6	0
48.62	225
48.64	450
48.66	375
48.68	375
48.7	375
48.72	450
48.74	450
48.76	375
48.78	450
48.8	225
48.82	375
48.84	675
48.86	375
48.88	675
48.9	450
48.92	525
48.94	450
48.96	225
48.98	375
49	225
49.02	900
49.04	600
49.06	600
49.08	375
49.1	525
49.12	600
49.14	375
49.16	375
49.18	525
49.2	525
49.22	450
49.24	1050
49.26	600
49.28	675
49.3	825
49.32	675
49.34	900
49.36	1425
49.38	1200
49.4	975
49.42	1200
49.44	750
49.46	975
49.48	825
49.5	1050
49.52	975
49.54	1275
49.56	1050
49.58	900
49.6	825
49.62	675
49.64	750
49.66	900
49.68	675
49.7	750
49.72	750
49.74	525
49.76	975
49.78	750
49.8	675
49.82	600
49.84	675
49.86	750
49.88	825
49.9	525
49.92	600
49.94	375
49.96	675
49.98	375
50	375
50.02	450
50.04	450
50.06	300
50.08	300
50.1	675
50.12	750
50.14	600
50.16	450
50.18	375
50.2	675
50.22	375
50.24	150
50.26	300
50.28	300
50.3	375
50.32	450
50.34	675
50.36	450
50.38	375
50.4	75
50.42	75
50.44	150
50.46	525
50.48	225
50.5	225
50.52	525
50.54	300
50.56	150
50.58	300
50.6	525
50.62	600
50.64	525
50.66	225
50.68	225
50.7	225
50.72	225
50.74	750
50.76	600
50.78	525
50.8	375
50.82	600
50.84	450
50.86	225
50.88	150
50.9	375
50.92	450
50.94	450
50.96	675
50.98	675
51	600
51.02	375
51.04	450
51.06	450
51.08	525
51.1	600
51.12	225
51.14	375
51.16	150
51.18	225
51.2	525
51.22	600
51.24	300
51.26	450
51.28	375
51.3	300
51.32	975
51.34	450
51.36	375
51.38	450
51.4	225
51.42	300
51.44	525
51.46	600
51.48	750
51.5	375
51.52	525
51.54	450
51.56	375
51.58	375
51.6	450
51.62	675
51.64	450
51.66	300
51.68	375
51.7	225
51.72	450
51.74	375
51.76	375
51.78	450
51.8	225
51.82	225
51.84	450
51.86	375
51.88	825
51.9	675
51.92	750
51.94	525
51.96	150
51.98	375
52	375
52.02	225
52.04	75
52.06	75
52.08	300
52.1	375
52.12	600
52.14	300
52.16	225
52.18	450
52.2	750
52.22	600
52.24	225
52.26	150
52.28	75
52.3	450
52.32	150
52.34	675
52.36	525
52.38	375
52.4	375
52.42	450
52.44	750
52.46	525
52.48	525
52.5	675
52.52	750
52.54	600
52.56	300
52.58	225
52.6	150
52.62	525
52.64	600
52.66	525
52.68	375
52.7	600
52.72	300
52.74	375
52.76	525
52.78	375
52.8	300
52.82	150
52.84	525
52.86	300
52.88	225
52.9	150
52.92	975
52.94	600
52.96	525
52.98	675
53	375
53.02	0
53.04	375
53.06	225
53.08	150
53.1	150
53.12	75
53.14	300
53.16	375
53.18	675
53.2	825
53.22	600
53.24	225
53.26	675
53.28	300
53.3	375
53.32	375
53.34	375
53.36	750
53.38	675
53.4	450
53.42	225
53.44	450
53.46	600
53.48	600
53.5	525
53.52	600
53.54	300
53.56	450
53.58	300
53.6	750
53.62	525
53.64	150
53.66	450
53.68	675
53.7	750
53.72	675
53.74	750
53.76	900
53.78	675
53.8	525
53.82	900
53.84	975
53.86	900
53.88	1050
53.9	1725
53.92	1125
53.94	600
53.96	1050
53.98	1650
54	975
54.02	1050
54.04	1650
54.06	1875
54.08	1125
54.1	1125
54.12	1275
54.14	1350
54.16	975
54.18	975
54.2	1050
54.22	1125
54.24	600
54.26	525
54.28	675
54.3	825
54.32	975
54.34	975
54.36	975
54.38	975
54.4	450
54.42	525
54.44	450
54.46	675
54.48	600
54.5	375
54.52	600
54.54	525
54.56	375
54.58	450
54.6	375
54.62	750
54.64	525
54.66	525
54.68	375
54.7	300
54.72	525
54.74	600
54.76	300
54.78	225
54.8	300
54.82	150
54.84	225
54.86	375
54.88	600
54.9	750
54.92	600
54.94	525
54.96	600
54.98	225
55	150
55.02	450
55.04	675
55.06	450
55.08	375
55.1	225
55.12	150
55.14	600
55.16	675
55.18	675
55.2	600
55.22	375
55.24	675
55.26	375
55.28	675
55.3	675
55.32	150
55.34	150
55.36	225
55.38	525
55.4	450
55.42	600
55.44	450
55.46	300
55.48	300
55.5	300
55.52	600
55.54	225
55.56	150
55.58	600
55.6	375
55.62	300
55.64	450
55.66	450
55.68	375
55.7	675
55.72	375
55.74	225
55.76	225
55.78	750
55.8	825
55.82	375
55.84	375
55.86	375
55.88	375
55.9	525
55.92	600
55.94	675
55.96	300
55.98	300
56	450
56.02	300
56.04	375
56.06	300
56.08	300
56.1	525
56.12	525
56.14	525
56.16	600
56.18	450
56.2	300
56.22	375
56.24	225
56.26	600
56.28	375
56.3	525
56.32	675
56.34	225
56.36	225
56.38	150
56.4	225
56.42	300
56.44	225
56.46	450
56.48	375
56.5	375
56.52	375
56.54	525
56.56	675
56.58	375
56.6	150
56.62	150
56.64	150
56.66	0
56.68	450
56.7	375
56.72	525
56.74	450
56.76	525
56.78	525
56.8	375
56.82	525
56.84	375
56.86	300
56.88	825
56.9	450
56.92	225
56.94	450
56.96	450
56.98	375
57	600
57.02	225
57.04	525
57.06	450
57.08	525
57.1	450
57.12	450
57.14	225
57.16	675
57.18	375
57.2	675
57.22	750
57.24	525
57.26	150
57.28	450
57.3	450
57.32	450
57.34	600
57.36	600
57.38	600
57.4	600
57.42	525
57.44	675
57.46	600
57.48	675
57.5	225
57.52	150
57.54	300
57.56	375
57.58	300
57.6	600
57.62	600
57.64	750
57.66	450
57.68	675
57.7	450
57.72	525
57.74	225
57.76	300
57.78	300
57.8	300
57.82	450
57.84	450
57.86	675
57.88	375
57.9	675
57.92	525
57.94	150
57.96	300
57.98	375
58	375
58.02	450
58.04	300
58.06	450
58.08	225
58.1	300
58.12	450
58.14	600
58.16	225
58.18	450
58.2	375
58.22	375
58.24	675
58.26	750
58.28	150
58.3	150
58.32	225
58.34	225
58.36	150
58.38	300
58.4	300
58.42	525
58.44	375
58.46	525
58.48	600
58.5	675
58.52	600
58.54	750
58.56	525
58.58	450
58.6	300
58.62	300
58.64	525
58.66	300
58.68	525
58.7	675
58.72	375
58.74	375
58.76	300
58.78	300
58.8	225
58.82	375
58.84	450
58.86	375
58.88	225
58.9	300
58.92	375
58.94	375
58.96	300
58.98	450
59	600
59.02	525
59.04	525
59.06	300
59.08	450
59.1	225
59.12	150
59.14	150
59.16	375
59.18	300
59.2	225
59.22	375
59.24	600
59.26	375
59.28	300
59.3	300
59.32	75
59.34	225
59.36	300
59.38	450
59.4	900
59.42	525
59.44	300
59.46	450
59.48	450
59.5	225
59.52	150
59.54	300
59.56	375
59.58	225
59.6	300
59.62	375
59.64	375
59.66	675
59.68	750
59.7	450
59.72	450
59.74	375
59.76	300
59.78	600
59.8	375
59.82	450
59.84	600
59.86	675
59.88	375
59.9	375
59.92	525
59.94	300
59.96	525
59.98	300
60	300
60.02	300
60.04	600
60.06	150
60.08	450
60.1	450
60.12	675
60.14	450
60.16	225
60.18	375
60.2	75
60.22	450
60.24	450
60.26	450
60.28	300
60.3	375
60.32	525
60.34	300
60.36	525
60.38	450
60.4	525
60.42	375
60.44	300
60.46	75
60.48	450
60.5	300
60.52	150
60.54	150
60.56	525
60.58	600
60.6	600
60.62	600
60.64	375
60.66	75
60.68	375
60.7	225
60.72	225
60.74	300
60.76	600
60.78	450
60.8	225
60.82	300
60.84	450
60.86	300
60.88	750
60.9	150
60.92	600
60.94	150
60.96	450
60.98	225
61	375
61.02	375
61.04	375
61.06	675
61.08	225
61.1	375
61.12	450
61.14	600
61.16	375
61.18	300
61.2	525
61.22	525
61.24	300
61.26	525
61.28	225
61.3	375
61.32	150
61.34	375
61.36	450
61.38	225
61.4	600
61.42	300
61.44	375
61.46	600
61.48	450
61.5	225
61.52	600
61.54	225
61.56	150
61.58	150
61.6	450
61.62	675
61.64	825
61.66	300
61.68	450
61.7	750
61.72	525
61.74	300
61.76	600
61.78	450
61.8	150
61.82	600
61.84	450
61.86	825
61.88	600
61.9	150
61.92	525
61.94	450
61.96	450
61.98	375
62	375
62.02	300
62.04	525
62.06	675
62.08	600
62.1	300
62.12	900
62.14	675
62.16	750
62.18	450
62.2	450
62.22	600
62.24	750
62.26	825
62.28	750
62.3	1125
62.32	750
62.34	1050
62.36	450
62.38	825
62.4	675
62.42	825
62.44	900
62.46	600
62.48	825
62.5	600
62.52	975
62.54	1275
62.56	450
62.58	1275
62.6	375
62.62	1050
62.64	750
62.66	375
62.68	450
62.7	450
62.72	600
62.74	750
62.76	450
62.78	525
62.8	825
62.82	450
62.84	600
62.86	600
62.88	750
62.9	225
62.92	300
62.94	225
62.96	150
62.98	300
63	600
63.02	675
63.04	375
63.06	525
63.08	750
63.1	300
63.12	375
63.14	750
63.16	300
63.18	75
63.2	300
63.22	225
63.24	450
63.26	525
63.28	525
63.3	525
63.32	150
63.34	225
63.36	450
63.38	300
63.4	450
63.42	450
63.44	600
63.46	750
63.48	600
63.5	450
63.52	375
63.54	600
63.56	750
63.58	450
63.6	225
63.62	225
63.64	225
63.66	675
63.68	825
63.7	600
63.72	750
63.74	600
63.76	450
63.78	750
63.8	675
63.82	675
63.84	975
63.86	675
63.88	1125
63.9	750
63.92	825
63.94	900
63.96	1050
63.98	825
64	900
64.02	825
64.04	900
64.06	825
64.08	975
64.1	825
64.12	975
64.14	1050
64.16	525
64.18	900
64.2	600
64.22	750
64.24	750
64.26	750
64.28	525
64.3	975
64.32	900
64.34	450
64.36	600
64.38	525
64.4	750
64.42	375
64.44	225
64.46	450
64.48	825
64.5	600
64.52	375
64.54	225
64.56	375
64.58	225
64.6	150
64.62	825
64.64	750
64.66	300
64.68	300
64.7	150
64.72	300
64.74	525
64.76	525
64.78	450
64.8	450
64.82	375
64.84	450
64.86	525
64.88	225
64.9	525
64.92	600
64.94	375
64.96	525
64.98	300
65	525
65.02	600
65.04	450
65.06	225
65.08	525
65.1	300
65.12	750
65.14	375
65.16	225
65.18	450
65.2	225
65.22	75
65.24	300
65.26	300
65.28	450
65.3	450
65.32	450
65.34	450
65.36	450
65.38	225
65.4	375
65.42	525
65.44	525
65.46	675
65.48	150
65.5	225
65.52	525
65.54	450
65.56	75
65.58	375
65.6	375
65.62	75
65.64	0
65.66	225
65.68	300
65.7	525
65.72	600
65.74	300
65.76	225
65.78	225
65.8	375
65.82	375
65.84	450
65.86	450
65.88	675
65.9	675
65.92	300
65.94	450
65.96	225
65.98	675
66	375
66.02	375
66.04	225
66.06	75
66.08	0
66.1	225
66.12	375
66.14	75
66.16	375
66.18	300
66.2	300
66.22	375
66.24	300
66.26	225
66.28	450
66.3	525
66.32	525
66.34	525
66.36	150
66.38	375
66.4	375
66.42	525
66.44	450
66.46	450
66.48	225
66.5	300
66.52	450
66.54	375
66.56	375
66.58	300
66.6	600
66.62	375
66.64	300
66.66	225
66.68	600
66.7	375
66.72	150
66.74	525
66.76	450
66.78	225
66.8	375
66.82	0
66.84	225
66.86	375
66.88	300
66.9	375
66.92	450
66.94	600
66.96	675
66.98	450
67	525
67.02	525
67.04	825
67.06	450
67.08	450
67.1	300
67.12	300
67.14	225
67.16	150
67.18	300
67.2	375
67.22	225
67.24	300
67.26	450
67.28	150
67.3	300
67.32	300
67.34	150
67.36	300
67.38	375
67.4	225
67.42	600
67.44	150
67.46	150
67.48	300
67.5	450
67.52	225
67.54	225
67.56	150
67.58	525
67.6	450
67.62	450
67.64	300
67.66	450
67.68	300
67.7	375
67.72	300
67.74	450
67.76	375
67.78	150
67.8	225
67.82	225
67.84	675
67.86	150
67.88	300
67.9	375
67.92	375
67.94	375
67.96	375
67.98	150
68	225
68.02	450
68.04	300
68.06	300
68.08	225
68.1	300
68.12	600
68.14	225
68.16	150
68.18	150
68.2	225
68.22	75
68.24	300
68.26	300
68.28	375
68.3	375
68.32	375
68.34	225
68.36	300
68.38	525
68.4	375
68.42	675
68.44	225
68.46	225
68.48	225
68.5	300
68.52	375
68.54	450
68.56	375
68.58	675
68.6	300
68.62	450
68.64	375
68.66	375
68.68	225
68.7	375
68.72	1125
68.74	300
68.76	225
68.78	300
68.8	525
68.82	750
68.84	900
68.86	600
68.88	450
68.9	525
68.92	150
68.94	375
68.96	150
68.98	75
69	375
69.02	600
69.04	600
69.06	525
69.08	525
69.1	525
69.12	375
69.14	225
69.16	225
69.18	300
69.2	300
69.22	375
69.24	375
69.26	825
69.28	750
69.3	450
69.32	375
69.34	225
69.36	225
69.38	225
69.4	0
69.42	375
69.44	600
69.46	675
69.48	450
69.5	375
69.52	375
69.54	300
69.56	375
69.58	375
69.6	825
69.62	300
69.64	300
69.66	450
69.68	375
69.7	375
69.72	525
69.74	600
69.76	750
69.78	450
69.8	600
69.82	600
69.84	375
69.86	525
69.88	525
69.9	300
69.92	525
69.94	450
69.96	525
69.98	450
70	150
70.02	150
70.04	225
70.06	375
70.08	375
70.1	450
70.12	750
70.14	600
70.16	300
70.18	300
70.2	600
70.22	525
70.24	675
70.26	675
70.28	375
70.3	300
70.32	375
70.34	450
70.36	300
70.38	375
70.4	750
70.42	300
70.44	600
70.46	525
70.48	300
70.5	375
70.52	600
70.54	150
70.56	300
70.58	525
70.6	750
70.62	225
70.64	225
70.66	375
70.68	375
70.7	525
70.72	300
70.74	225
70.76	375
70.78	450
70.8	225
70.82	300
70.84	300
70.86	150
70.88	375
70.9	450
70.92	450
70.94	150
70.96	525
70.98	525
71	600
71.02	150
71.04	600
71.06	600
71.08	600
71.1	525
71.12	525
71.14	600
71.16	600
71.18	750
71.2	450
71.22	450
71.24	450
71.26	450
71.28	225
71.3	300
71.32	375
71.34	300
71.36	525
71.38	600
71.4	225
71.42	300
71.44	375
71.46	375
71.48	300
71.5	150
71.52	525
71.54	375
71.56	600
71.58	900
71.6	600
71.62	525
71.64	300
71.66	150
71.68	450
71.7	825
71.72	225
71.74	300
71.76	525
71.78	600
71.8	375
71.82	525
71.84	750
71.86	450
71.88	375
71.9	525
71.92	750
71.94	675
71.96	300
71.98	450
72	450
72.02	375
72.04	375
72.06	675
72.08	600
72.1	375
72.12	750
72.14	525
72.16	675
72.18	600
72.2	525
72.22	750
72.24	525
72.26	300
72.28	450
72.3	450
72.32	375
72.34	450
72.36	750
72.38	525
72.4	600
72.42	600
72.44	300
72.46	375
72.48	375
72.5	375
72.52	450
72.54	525
72.56	300
72.58	525
72.6	375
72.62	300
72.64	375
72.66	375
72.68	225
72.7	300
72.72	600
72.74	375
72.76	750
72.78	600
72.8	300
72.82	375
72.84	375
72.86	225
72.88	300
72.9	375
72.92	225
72.94	450
72.96	525
72.98	375
73	75
73.02	450
73.04	900
73.06	525
73.08	675
73.1	525
73.12	450
73.14	450
73.16	225
73.18	300
73.2	300
73.22	525
73.24	150
73.26	525
73.28	225
73.3	150
73.32	375
73.34	375
73.36	225
73.38	75
73.4	375
73.42	150
73.44	225
73.46	0
73.48	225
73.5	375
73.52	225
73.54	450
73.56	300
73.58	375
73.6	300
73.62	300
73.64	225
73.66	75
73.68	75
73.7	225
73.72	375
73.74	150
73.76	450
73.78	525
73.8	300
73.82	450
73.84	375
73.86	225
73.88	225
73.9	300
73.92	300
73.94	225
73.96	225
73.98	600
74	375
74.02	600
74.04	525
74.06	450
74.08	450
74.1	375
74.12	525
74.14	150
74.16	450
74.18	300
74.2	450
74.22	375
74.24	450
74.26	525
74.28	300
74.3	150
74.32	375
74.34	375
74.36	225
74.38	225
74.4	225
74.42	450
74.44	450
74.46	525
74.48	600
74.5	300
74.52	525
74.54	300
74.56	300
74.58	450
74.6	600
74.62	225
74.64	375
74.66	750
74.68	375
74.7	75
74.72	525
74.74	300
74.76	225
74.78	225
74.8	375
74.82	375
74.84	375
74.86	450
74.88	450
74.9	450
74.92	75
74.94	450
74.96	450
74.98	225
75	600
75.02	300
75.04	375
75.06	525
75.08	525
75.1	525
75.12	600
75.14	600
75.16	525
75.18	525
75.2	375
75.22	375
75.24	300
75.26	375
75.28	450
75.3	600
75.32	300
75.34	300
75.36	225
75.38	525
75.4	225
75.42	525
75.44	600
75.46	675
75.48	450
75.5	600
75.52	300
75.54	525
75.56	300
75.58	450
75.6	375
75.62	375
75.64	300
75.66	525
75.68	375
75.7	225
75.72	375
75.74	750
75.76	375
75.78	600
75.8	450
75.82	225
75.84	525
75.86	375
75.88	375
75.9	300
75.92	225
75.94	225
75.96	225
75.98	525
76	600
76.02	150
76.04	225
76.06	675
76.08	300
76.1	300
76.12	225
76.14	525
76.16	150
76.18	225
76.2	375
76.22	225
76.24	525
76.26	300
76.28	375
76.3	75
76.32	300
76.34	450
76.36	375
76.38	375
76.4	450
76.42	300
76.44	300
76.46	300
76.48	225
76.5	450
76.52	225
76.54	450
76.56	450
76.58	675
76.6	300
76.62	450
76.64	450
76.66	375
76.68	150
76.7	150
76.72	75
76.74	300
76.76	450
76.78	300
76.8	600
76.82	750
76.84	150
76.86	375
76.88	300
76.9	225
76.92	375
76.94	600
76.96	300
76.98	300
77	375
77.02	525
77.04	375
77.06	375
77.08	225
77.1	225
77.12	375
77.14	525
77.16	225
77.18	450
77.2	150
77.22	225
77.24	450
77.26	225
77.28	225
77.3	450
77.32	525
77.34	150
77.36	450
77.38	600
77.4	450
77.42	600
77.44	525
77.46	300
77.48	450
77.5	375
77.52	225
77.54	375
77.56	375
77.58	225
77.6	375
77.62	525
77.64	375
77.66	150
77.68	675
77.7	675
77.72	450
77.74	525
77.76	600
77.78	150
77.8	150
77.82	375
77.84	1050
77.86	525
77.88	375
77.9	600
77.92	375
77.94	225
77.96	150
77.98	300
78	450
78.02	375
78.04	150
78.06	75
78.08	300
78.1	375
78.12	375
78.14	525
78.16	225
78.18	300
78.2	450
78.22	525
78.24	675
78.26	300
78.28	300
78.3	375
78.32	375
78.34	150
78.36	375
78.38	525
78.4	300
78.42	525
78.44	375
78.46	450
78.48	225
78.5	150
78.52	150
78.54	525
78.56	525
78.58	450
78.6	375
78.62	375
78.64	675
78.66	450
78.68	600
78.7	600
78.72	450
78.74	225
78.76	300
78.78	150
78.8	525
78.82	750
78.84	450
78.86	300
78.88	75
78.9	600
78.92	225
78.94	225
78.96	600
78.98	450
79	375
79.02	450
79.04	225
79.06	375
79.08	600
79.1	75
79.12	300
79.14	450
79.16	375
79.18	375
79.2	300
79.22	675
79.24	375
79.26	75
79.28	450
79.3	525
79.32	0
79.34	75
79.36	675
79.38	675
79.4	300
79.42	600
79.44	525
79.46	300
79.48	300
79.5	375
79.52	525
79.54	375
79.56	600
79.58	375
79.6	375
79.62	375
79.64	375
79.66	600
79.68	375
79.7	300
79.72	75
79.74	450
79.76	375
79.78	600
79.8	525
79.82	375
79.84	525
79.86	675
79.88	300
79.9	450
79.92	150
79.94	375
79.96	525
79.98	300
80	375
80.02	825
80.04	225
80.06	450
80.08	450
80.1	450
80.12	375
80.14	225
80.16	225
80.18	375
80.2	300
80.22	300
80.24	900
80.26	225
80.28	225
80.3	225
80.32	600
80.34	750
80.36	675
80.38	300
80.4	675
80.42	375
80.44	75
80.46	300
80.48	300
80.5	450
80.52	375
80.54	300
80.56	450
80.58	825
80.6	750
80.62	525
80.64	600
80.66	600
80.68	525
80.7	450
80.72	525
80.74	150
80.76	525
80.78	450
80.8	375
80.82	375
80.84	450
80.86	525
80.88	450
80.9	375
80.92	300
80.94	525
80.96	225
80.98	450
81	150
81.02	225
81.04	675
81.06	375
81.08	300
81.1	375
81.12	525
81.14	600
81.16	750
81.18	375
81.2	750
81.22	450
81.24	375
81.26	225
81.28	525
81.3	675
81.32	525
81.34	375
81.36	525
81.38	675
81.4	600
81.42	450
81.44	375
81.46	150
81.48	525
81.5	525
81.52	225
81.54	225
81.56	225
81.58	375
81.6	600
81.62	450
81.64	300
81.66	600
81.68	300
81.7	150
81.72	450
81.74	300
81.76	225
81.78	150
81.8	75
81.82	525
81.84	900
81.86	450
81.88	150
81.9	300
81.92	450
81.94	300
81.96	450
81.98	300
82	225
82.02	375
82.04	150
82.06	150
82.08	225
82.1	225
82.12	300
82.14	525
82.16	450
82.18	375
82.2	300
82.22	225
82.24	375
82.26	300
82.28	225
82.3	525
82.32	600
82.34	0
82.36	525
82.38	0
82.4	300
82.42	450
82.44	525
82.46	300
82.48	300
82.5	450
82.52	600
82.54	225
82.56	225
82.58	375
82.6	300
82.62	375
82.64	225
82.66	450
82.68	300
82.7	150
82.72	450
82.74	600
82.76	750
82.78	225
82.8	375
82.82	525
82.84	225
82.86	450
82.88	375
82.9	675
82.92	300
82.94	300
82.96	225
82.98	375
83	300
83.02	825
83.04	450
83.06	300
83.08	300
83.1	450
83.12	375
83.14	525
83.16	225
83.18	150
83.2	150
83.22	375
83.24	300
83.26	300
83.28	75
83.3	375
83.32	300
83.34	375
83.36	600
83.38	675
83.4	225
83.42	225
83.44	300
83.46	675
83.48	375
83.5	225
83.52	450
83.54	300
83.56	300
83.58	300
83.6	375
83.62	375
83.64	525
83.66	450
83.68	300
83.7	300
83.72	75
83.74	600
83.76	450
83.78	750
83.8	225
83.82	75
83.84	75
83.86	150
83.88	225
83.9	450
83.92	225
83.94	450
83.96	225
83.98	300
84	375
84.02	300
84.04	150
84.06	450
84.08	525
84.1	300
84.12	150
84.14	675
84.16	375
84.18	225
84.2	750
84.22	300
84.24	0
84.26	375
84.28	300
84.3	225
84.32	525
84.34	450
84.36	375
84.38	675
84.4	450
84.42	525
84.44	750
84.46	450
84.48	525
84.5	375
84.52	375
84.54	150
84.56	375
84.58	375
84.6	225
84.62	300
84.64	525
84.66	225
84.68	525
84.7	225
84.72	525
84.74	600
84.76	300
84.78	375
84.8	525
84.82	300
84.84	300
84.86	750
84.88	675
84.9	675
84.92	525
84.94	750
84.96	675
84.98	75
85	75
85.02	300
85.04	450
85.06	225
85.08	375
85.1	675
85.12	675
85.14	750
85.16	750
85.18	750
85.2	600
85.22	300
85.24	450
85.26	525
85.28	600
85.3	525
85.32	450
85.34	150
85.36	225
85.38	300
85.4	375
85.42	750
85.44	300
85.46	375
85.48	600
85.5	675
85.52	150
85.54	525
85.56	375
85.58	375
85.6	300
85.62	525
85.64	450
85.66	525
85.68	525
85.7	525
85.72	150
85.74	375
85.76	375
85.78	375
85.8	300
85.82	300
85.84	450
85.86	450
85.88	300
85.9	450
85.92	450
85.94	375
85.96	300
85.98	525
86	375
86.02	525
86.04	375
86.06	525
86.08	675
86.1	600
86.12	525
86.14	375
86.16	300
86.18	225
86.2	450
86.22	975
86.24	525
86.26	450
86.28	300
86.3	525
86.32	150
86.34	375
86.36	225
86.38	225
86.4	375
86.42	375
86.44	525
86.46	150
86.48	375
86.5	75
86.52	75
86.54	300
86.56	300
86.58	375
86.6	450
86.62	225
86.64	300
86.66	600
86.68	300
86.7	375
86.72	225
86.74	375
86.76	300
86.78	225
86.8	150
86.82	600
86.84	450
86.86	225
86.88	525
86.9	225
86.92	450
86.94	450
86.96	525
86.98	600
87	600
87.02	75
87.04	300
87.06	150
87.08	225
87.1	225
87.12	225
87.14	300
87.16	225
87.18	525
87.2	225
87.22	300
87.24	600
87.26	900
87.28	525
87.3	150
87.32	525
87.34	375
87.36	450
87.38	525
87.4	525
87.42	525
87.44	150
87.46	225
87.48	375
87.5	525
87.52	525
87.54	300
87.56	375
87.58	600
87.6	450
87.62	675
87.64	450
87.66	525
87.68	300
87.7	300
87.72	375
87.74	450
87.76	450
87.78	300
87.8	450
87.82	450
87.84	675
87.86	450
87.88	525
87.9	525
87.92	750
87.94	150
87.96	150
87.98	600
88	375
88.02	300
88.04	150
88.06	375
88.08	150
88.1	525
88.12	150
88.14	375
88.16	300
88.18	525
88.2	600
88.22	600
88.24	375
88.26	825
88.28	375
88.3	600
88.32	450
88.34	825
88.36	825
88.38	525
88.4	975
88.42	600
88.44	825
88.46	825
88.48	225
88.5	600
88.52	750
88.54	525
88.56	75
88.58	225
88.6	300
88.62	225
88.64	300
88.66	525
88.68	600
88.7	375
88.72	600
88.74	300
88.76	375
88.78	150
88.8	300
88.82	600
88.84	375
88.86	525
88.88	450
88.9	525
88.92	375
88.94	675
88.96	150
88.98	225
89	525
89.02	525
89.04	75
89.06	375
89.08	300
89.1	375
89.12	525
89.14	600
89.16	150
89.18	600
89.2	600
89.22	600
89.24	600
89.26	375
89.28	525
89.3	525
89.32	450
89.34	450
89.36	825
89.38	375
89.4	600
89.42	300
89.44	675
89.46	600
89.48	750
89.5	375
89.52	450
89.54	300
89.56	450
89.58	450
89.6	225
89.62	750
89.64	375
89.66	375
89.68	675
89.7	375
89.72	150
89.74	150
89.76	300
89.78	450
89.8	375
89.82	600
89.84	225
89.86	300
89.88	450
89.9	600
89.92	375
89.94	150
89.96	375
89.98	300
90	225

