Sample	 
Comments	 
Filename	G:\ceshi\20230223\wangjun410-03.22\zhuyetan-fe3o4_Theta_2-Theta.raw

Goniometer	MiniFlex 300/600
Attachment	Air-sensitive Sample Holder
Monochromater	None

X	0
Y	0
Z	0
10	450
10.02	300
10.04	375
10.06	525
10.08	600
10.1	600
10.12	975
10.14	675
10.16	600
10.18	300
10.2	150
10.22	375
10.24	450
10.26	600
10.28	450
10.3	300
10.32	525
10.34	450
10.36	300
10.38	600
10.4	600
10.42	600
10.44	375
10.46	600
10.48	600
10.5	750
10.52	450
10.54	450
10.56	300
10.58	600
10.6	450
10.62	675
10.64	750
10.66	675
10.68	825
10.7	525
10.72	525
10.74	300
10.76	600
10.78	375
10.8	450
10.82	450
10.84	975
10.86	450
10.88	300
10.9	75
10.92	375
10.94	525
10.96	450
10.98	525
11	600
11.02	975
11.04	900
11.06	750
11.08	600
11.1	525
11.12	375
11.14	525
11.16	975
11.18	600
11.2	525
11.22	525
11.24	450
11.26	300
11.28	450
11.3	525
11.32	450
11.34	450
11.36	375
11.38	750
11.4	825
11.42	375
11.44	450
11.46	675
11.48	600
11.5	450
11.52	375
11.54	525
11.56	525
11.58	600
11.6	750
11.62	225
11.64	300
11.66	375
11.68	150
11.7	525
11.72	900
11.74	375
11.76	675
11.78	375
11.8	600
11.82	450
11.84	375
11.86	825
11.88	375
11.9	525
11.92	375
11.94	675
11.96	450
11.98	225
12	300
12.02	300
12.04	225
12.06	450
12.08	375
12.1	300
12.12	600
12.14	975
12.16	300
12.18	600
12.2	525
12.22	375
12.24	450
12.26	1050
12.28	750
12.3	600
12.32	450
12.34	375
12.36	225
12.38	525
12.4	525
12.42	450
12.44	375
12.46	375
12.48	450
12.5	375
12.52	300
12.54	300
12.56	375
12.58	375
12.6	300
12.62	450
12.64	525
12.66	450
12.68	300
12.7	375
12.72	750
12.74	150
12.76	300
12.78	675
12.8	150
12.82	300
12.84	525
12.86	150
12.88	450
12.9	225
12.92	375
12.94	750
12.96	450
12.98	750
13	675
13.02	600
13.04	300
13.06	825
13.08	675
13.1	300
13.12	75
13.14	300
13.16	675
13.18	600
13.2	525
13.22	300
13.24	450
13.26	525
13.28	750
13.3	600
13.32	525
13.34	750
13.36	450
13.38	600
13.4	900
13.42	975
13.44	600
13.46	1050
13.48	750
13.5	825
13.52	525
13.54	450
13.56	600
13.58	600
13.6	750
13.62	300
13.64	375
13.66	450
13.68	300
13.7	675
13.72	975
13.74	375
13.76	600
13.78	525
13.8	600
13.82	375
13.84	300
13.86	375
13.88	375
13.9	675
13.92	375
13.94	450
13.96	675
13.98	375
14	525
14.02	300
14.04	525
14.06	525
14.08	450
14.1	600
14.12	900
14.14	150
14.16	900
14.18	600
14.2	750
14.22	450
14.24	150
14.26	150
14.28	525
14.3	750
14.32	525
14.34	675
14.36	675
14.38	750
14.4	975
14.42	450
14.44	375
14.46	450
14.48	450
14.5	600
14.52	825
14.54	300
14.56	525
14.58	900
14.6	825
14.62	300
14.64	525
14.66	300
14.68	300
14.7	600
14.72	525
14.74	525
14.76	675
14.78	450
14.8	825
14.82	600
14.84	825
14.86	450
14.88	450
14.9	375
14.92	375
14.94	450
14.96	750
14.98	450
15	525
15.02	600
15.04	375
15.06	975
15.08	750
15.1	675
15.12	750
15.14	675
15.16	450
15.18	675
15.2	825
15.22	675
15.24	525
15.26	375
15.28	900
15.3	750
15.32	375
15.34	375
15.36	675
15.38	825
15.4	525
15.42	675
15.44	750
15.46	675
15.48	825
15.5	975
15.52	300
15.54	375
15.56	525
15.58	75
15.6	300
15.62	600
15.64	600
15.66	600
15.68	525
15.7	600
15.72	600
15.74	375
15.76	750
15.78	600
15.8	750
15.82	750
15.84	825
15.86	1200
15.88	825
15.9	750
15.92	1275
15.94	750
15.96	600
15.98	675
16	675
16.02	300
16.04	375
16.06	525
16.08	825
16.1	225
16.12	450
16.14	450
16.16	750
16.18	600
16.2	375
16.22	675
16.24	975
16.26	750
16.28	750
16.3	750
16.32	600
16.34	300
16.36	600
16.38	750
16.4	900
16.42	900
16.44	375
16.46	450
16.48	750
16.5	450
16.52	525
16.54	525
16.56	675
16.58	525
16.6	450
16.62	600
16.64	675
16.66	900
16.68	525
16.7	750
16.72	675
16.74	450
16.76	750
16.78	525
16.8	675
16.82	375
16.84	525
16.86	825
16.88	975
16.9	600
16.92	600
16.94	825
16.96	450
16.98	1050
17	975
17.02	900
17.04	525
17.06	675
17.08	450
17.1	525
17.12	600
17.14	825
17.16	600
17.18	675
17.2	900
17.22	375
17.24	600
17.26	225
17.28	600
17.3	825
17.32	975
17.34	750
17.36	375
17.38	675
17.4	525
17.42	450
17.44	375
17.46	525
17.48	750
17.5	750
17.52	450
17.54	600
17.56	600
17.58	825
17.6	375
17.62	300
17.64	750
17.66	750
17.68	825
17.7	450
17.72	600
17.74	375
17.76	450
17.78	600
17.8	450
17.82	900
17.84	1125
17.86	825
17.88	975
17.9	750
17.92	900
17.94	975
17.96	1125
17.98	1425
18	600
18.02	675
18.04	825
18.06	450
18.08	825
18.1	1200
18.12	600
18.14	1125
18.16	750
18.18	825
18.2	1575
18.22	900
18.24	900
18.26	1050
18.28	1575
18.3	1425
18.32	1200
18.34	1425
18.36	1575
18.38	900
18.4	1050
18.42	675
18.44	675
18.46	1350
18.48	1125
18.5	1050
18.52	825
18.54	1050
18.56	675
18.58	450
18.6	1275
18.62	1050
18.64	750
18.66	600
18.68	600
18.7	525
18.72	525
18.74	825
18.76	1125
18.78	900
18.8	675
18.82	825
18.84	900
18.86	825
18.88	525
18.9	750
18.92	825
18.94	450
18.96	675
18.98	1125
19	825
19.02	450
19.04	1050
19.06	975
19.08	750
19.1	1125
19.12	975
19.14	900
19.16	450
19.18	975
19.2	1200
19.22	975
19.24	825
19.26	825
19.28	600
19.3	600
19.32	825
19.34	675
19.36	375
19.38	825
19.4	900
19.42	1275
19.44	1350
19.46	1050
19.48	900
19.5	525
19.52	825
19.54	1200
19.56	1350
19.58	825
19.6	750
19.62	750
19.64	900
19.66	675
19.68	300
19.7	825
19.72	300
19.74	150
19.76	900
19.78	825
19.8	900
19.82	975
19.84	825
19.86	675
19.88	1050
19.9	900
19.92	375
19.94	600
19.96	1275
19.98	675
20	750
20.02	1050
20.04	1125
20.06	975
20.08	825
20.1	750
20.12	825
20.14	675
20.16	600
20.18	1050
20.2	675
20.22	900
20.24	1050
20.26	900
20.28	750
20.3	1050
20.32	900
20.34	900
20.36	1050
20.38	975
20.4	900
20.42	1275
20.44	825
20.46	1050
20.48	1200
20.5	900
20.52	1050
20.54	750
20.56	825
20.58	900
20.6	975
20.62	975
20.64	1350
20.66	1125
20.68	1275
20.7	1275
20.72	825
20.74	975
20.76	1425
20.78	975
20.8	1425
20.82	825
20.84	1200
20.86	1050
20.88	750
20.9	750
20.92	525
20.94	1050
20.96	1125
20.98	750
21	675
21.02	675
21.04	600
21.06	525
21.08	675
21.1	750
21.12	975
21.14	900
21.16	1125
21.18	750
21.2	900
21.22	1275
21.24	1200
21.26	1200
21.28	750
21.3	675
21.32	750
21.34	450
21.36	450
21.38	975
21.4	900
21.42	1200
21.44	900
21.46	825
21.48	1200
21.5	750
21.52	1050
21.54	900
21.56	1500
21.58	1425
21.6	825
21.62	450
21.64	675
21.66	450
21.68	675
21.7	825
21.72	900
21.74	825
21.76	750
21.78	825
21.8	675
21.82	675
21.84	900
21.86	750
21.88	600
21.9	900
21.92	1125
21.94	825
21.96	1275
21.98	1275
22	900
22.02	750
22.04	525
22.06	975
22.08	525
22.1	675
22.12	900
22.14	1050
22.16	675
22.18	375
22.2	750
22.22	1050
22.24	1050
22.26	825
22.28	825
22.3	675
22.32	750
22.34	675
22.36	450
22.38	675
22.4	750
22.42	675
22.44	525
22.46	1050
22.48	750
22.5	1275
22.52	825
22.54	825
22.56	675
22.58	825
22.6	1200
22.62	975
22.64	600
22.66	600
22.68	825
22.7	1050
22.72	975
22.74	450
22.76	525
22.78	600
22.8	600
22.82	975
22.84	525
22.86	900
22.88	975
22.9	1275
22.92	750
22.94	675
22.96	525
22.98	375
23	825
23.02	825
23.04	1125
23.06	1200
23.08	900
23.1	975
23.12	825
23.14	975
23.16	825
23.18	900
23.2	675
23.22	525
23.24	825
23.26	900
23.28	750
23.3	825
23.32	750
23.34	675
23.36	450
23.38	825
23.4	825
23.42	150
23.44	750
23.46	750
23.48	750
23.5	750
23.52	525
23.54	900
23.56	375
23.58	675
23.6	900
23.62	450
23.64	1125
23.66	450
23.68	600
23.7	675
23.72	900
23.74	750
23.76	675
23.78	600
23.8	525
23.82	675
23.84	525
23.86	525
23.88	675
23.9	450
23.92	675
23.94	825
23.96	675
23.98	825
24	825
24.02	525
24.04	300
24.06	1050
24.08	975
24.1	750
24.12	750
24.14	900
24.16	750
24.18	450
24.2	900
24.22	1050
24.24	900
24.26	900
24.28	450
24.3	600
24.32	600
24.34	600
24.36	675
24.38	600
24.4	450
24.42	825
24.44	1050
24.46	375
24.48	525
24.5	375
24.52	675
24.54	600
24.56	975
24.58	600
24.6	900
24.62	675
24.64	825
24.66	675
24.68	450
24.7	675
24.72	750
24.74	1125
24.76	1125
24.78	450
24.8	675
24.82	750
24.84	750
24.86	375
24.88	750
24.9	675
24.92	600
24.94	375
24.96	375
24.98	375
25	300
25.02	375
25.04	525
25.06	450
25.08	375
25.1	450
25.12	375
25.14	525
25.16	750
25.18	450
25.2	375
25.22	675
25.24	750
25.26	450
25.28	450
25.3	525
25.32	375
25.34	600
25.36	675
25.38	900
25.4	600
25.42	225
25.44	225
25.46	375
25.48	1050
25.5	525
25.52	600
25.54	450
25.56	600
25.58	525
25.6	750
25.62	525
25.64	600
25.66	525
25.68	600
25.7	450
25.72	225
25.74	750
25.76	600
25.78	750
25.8	375
25.82	750
25.84	750
25.86	675
25.88	600
25.9	525
25.92	750
25.94	450
25.96	450
25.98	450
26	450
26.02	300
26.04	450
26.06	375
26.08	825
26.1	900
26.12	450
26.14	900
26.16	675
26.18	1125
26.2	1125
26.22	675
26.24	600
26.26	525
26.28	450
26.3	450
26.32	900
26.34	450
26.36	675
26.38	825
26.4	675
26.42	375
26.44	450
26.46	525
26.48	375
26.5	675
26.52	375
26.54	825
26.56	750
26.58	1050
26.6	675
26.62	300
26.64	600
26.66	750
26.68	450
26.7	600
26.72	675
26.74	300
26.76	225
26.78	375
26.8	750
26.82	525
26.84	450
26.86	825
26.88	300
26.9	600
26.92	450
26.94	750
26.96	450
26.98	375
27	375
27.02	975
27.04	525
27.06	300
27.08	450
27.1	525
27.12	375
27.14	525
27.16	525
27.18	450
27.2	525
27.22	450
27.24	675
27.26	675
27.28	675
27.3	900
27.32	300
27.34	300
27.36	375
27.38	600
27.4	600
27.42	825
27.44	600
27.46	300
27.48	225
27.5	300
27.52	300
27.54	750
27.56	600
27.58	300
27.6	225
27.62	450
27.64	675
27.66	600
27.68	525
27.7	300
27.72	975
27.74	525
27.76	450
27.78	450
27.8	750
27.82	750
27.84	750
27.86	450
27.88	300
27.9	525
27.92	375
27.94	525
27.96	900
27.98	1050
28	450
28.02	600
28.04	375
28.06	525
28.08	525
28.1	450
28.12	600
28.14	225
28.16	450
28.18	525
28.2	600
28.22	225
28.24	600
28.26	675
28.28	525
28.3	375
28.32	525
28.34	750
28.36	450
28.38	675
28.4	525
28.42	225
28.44	825
28.46	525
28.48	450
28.5	225
28.52	225
28.54	675
28.56	375
28.58	675
28.6	675
28.62	675
28.64	900
28.66	825
28.68	600
28.7	525
28.72	600
28.74	375
28.76	300
28.78	450
28.8	300
28.82	300
28.84	600
28.86	825
28.88	750
28.9	675
28.92	525
28.94	225
28.96	300
28.98	225
29	600
29.02	525
29.04	300
29.06	675
29.08	675
29.1	825
29.12	375
29.14	1050
29.16	675
29.18	375
29.2	600
29.22	375
29.24	600
29.26	750
29.28	675
29.3	675
29.32	675
29.34	450
29.36	600
29.38	300
29.4	375
29.42	225
29.44	525
29.46	525
29.48	600
29.5	825
29.52	600
29.54	300
29.56	525
29.58	525
29.6	600
29.62	525
29.64	375
29.66	600
29.68	825
29.7	975
29.72	1050
29.74	900
29.76	525
29.78	525
29.8	825
29.82	750
29.84	600
29.86	750
29.88	1125
29.9	675
29.92	1200
29.94	1350
29.96	1125
29.98	1200
30	825
30.02	1425
30.04	2025
30.06	2550
30.08	1875
30.1	2400
30.12	1425
30.14	1200
30.16	1275
30.18	1050
30.2	900
30.22	825
30.24	900
30.26	825
30.28	450
30.3	750
30.32	750
30.34	1125
30.36	975
30.38	675
30.4	300
30.42	600
30.44	675
30.46	525
30.48	600
30.5	450
30.52	675
30.54	600
30.56	450
30.58	375
30.6	675
30.62	600
30.64	675
30.66	525
30.68	600
30.7	675
30.72	300
30.74	450
30.76	600
30.78	675
30.8	675
30.82	975
30.84	525
30.86	525
30.88	450
30.9	600
30.92	1050
30.94	750
30.96	675
30.98	675
31	525
31.02	450
31.04	600
31.06	375
31.08	300
31.1	375
31.12	225
31.14	375
31.16	375
31.18	450
31.2	525
31.22	450
31.24	225
31.26	525
31.28	600
31.3	300
31.32	600
31.34	375
31.36	300
31.38	450
31.4	525
31.42	525
31.44	675
31.46	450
31.48	750
31.5	525
31.52	600
31.54	300
31.56	375
31.58	375
31.6	375
31.62	750
31.64	525
31.66	675
31.68	300
31.7	150
31.72	300
31.74	675
31.76	525
31.78	825
31.8	900
31.82	300
31.84	600
31.86	525
31.88	300
31.9	900
31.92	450
31.94	825
31.96	825
31.98	450
32	375
32.02	375
32.04	300
32.06	375
32.08	450
32.1	375
32.12	375
32.14	300
32.16	675
32.18	75
32.2	600
32.22	750
32.24	525
32.26	225
32.28	225
32.3	150
32.32	525
32.34	375
32.36	225
32.38	375
32.4	375
32.42	450
32.44	450
32.46	600
32.48	675
32.5	225
32.52	675
32.54	525
32.56	450
32.58	225
32.6	375
32.62	75
32.64	675
32.66	975
32.68	525
32.7	525
32.72	150
32.74	300
32.76	525
32.78	300
32.8	150
32.82	300
32.84	675
32.86	375
32.88	375
32.9	450
32.92	825
32.94	375
32.96	150
32.98	150
33	375
33.02	450
33.04	525
33.06	450
33.08	225
33.1	225
33.12	825
33.14	675
33.16	525
33.18	450
33.2	450
33.22	450
33.24	525
33.26	450
33.28	750
33.3	600
33.32	750
33.34	525
33.36	750
33.38	675
33.4	525
33.42	450
33.44	375
33.46	750
33.48	675
33.5	450
33.52	600
33.54	975
33.56	225
33.58	600
33.6	375
33.62	825
33.64	600
33.66	600
33.68	525
33.7	375
33.72	375
33.74	300
33.76	375
33.78	450
33.8	450
33.82	675
33.84	525
33.86	675
33.88	675
33.9	375
33.92	225
33.94	225
33.96	75
33.98	525
34	300
34.02	450
34.04	675
34.06	600
34.08	600
34.1	300
34.12	450
34.14	525
34.16	600
34.18	525
34.2	450
34.22	525
34.24	225
34.26	675
34.28	450
34.3	525
34.32	750
34.34	375
34.36	375
34.38	300
34.4	750
34.42	750
34.44	375
34.46	225
34.48	450
34.5	225
34.52	375
34.54	675
34.56	750
34.58	525
34.6	525
34.62	675
34.64	375
34.66	600
34.68	225
34.7	675
34.72	525
34.74	525
34.76	300
34.78	525
34.8	450
34.82	450
34.84	600
34.86	525
34.88	825
34.9	525
34.92	525
34.94	675
34.96	600
34.98	1125
35	1350
35.02	600
35.04	750
35.06	675
35.08	450
35.1	750
35.12	750
35.14	675
35.16	900
35.18	450
35.2	675
35.22	900
35.24	1650
35.26	1125
35.28	2025
35.3	1800
35.32	2475
35.34	3525
35.36	3375
35.38	3300
35.4	3525
35.42	3975
35.44	4050
35.46	4650
35.48	2850
35.5	3525
35.52	2850
35.54	2475
35.56	2700
35.58	1650
35.6	2175
35.62	450
35.64	750
35.66	750
35.68	750
35.7	1275
35.72	1275
35.74	1125
35.76	1125
35.78	1050
35.8	1050
35.82	900
35.84	750
35.86	675
35.88	825
35.9	600
35.92	450
35.94	450
35.96	225
35.98	450
36	450
36.02	525
36.04	750
36.06	450
36.08	450
36.1	750
36.12	375
36.14	675
36.16	525
36.18	225
36.2	300
36.22	150
36.24	300
36.26	525
36.28	225
36.3	375
36.32	300
36.34	300
36.36	0
36.38	525
36.4	0
36.42	150
36.44	375
36.46	525
36.48	750
36.5	375
36.52	525
36.54	525
36.56	600
36.58	600
36.6	300
36.62	675
36.64	750
36.66	450
36.68	375
36.7	225
36.72	525
36.74	300
36.76	150
36.78	600
36.8	600
36.82	375
36.84	375
36.86	750
36.88	975
36.9	375
36.92	750
36.94	975
36.96	450
36.98	225
37	675
37.02	750
37.04	750
37.06	375
37.08	525
37.1	450
37.12	750
37.14	525
37.16	825
37.18	525
37.2	525
37.22	600
37.24	675
37.26	525
37.28	600
37.3	375
37.32	450
37.34	300
37.36	600
37.38	525
37.4	450
37.42	750
37.44	600
37.46	375
37.48	750
37.5	825
37.52	450
37.54	450
37.56	375
37.58	600
37.6	150
37.62	300
37.64	375
37.66	525
37.68	975
37.7	675
37.72	450
37.74	150
37.76	375
37.78	750
37.8	450
37.82	300
37.84	675
37.86	225
37.88	450
37.9	75
37.92	225
37.94	150
37.96	375
37.98	300
38	1125
38.02	300
38.04	450
38.06	375
38.08	375
38.1	225
38.12	375
38.14	225
38.16	600
38.18	525
38.2	450
38.22	600
38.24	525
38.26	450
38.28	225
38.3	300
38.32	75
38.34	450
38.36	450
38.38	450
38.4	450
38.42	300
38.44	225
38.46	375
38.48	450
38.5	525
38.52	525
38.54	525
38.56	300
38.58	300
38.6	225
38.62	450
38.64	600
38.66	150
38.68	150
38.7	300
38.72	825
38.74	450
38.76	375
38.78	600
38.8	675
38.82	675
38.84	600
38.86	450
38.88	375
38.9	750
38.92	750
38.94	825
38.96	300
38.98	450
39	300
39.02	600
39.04	825
39.06	600
39.08	375
39.1	525
39.12	300
39.14	75
39.16	300
39.18	450
39.2	300
39.22	450
39.24	300
39.26	450
39.28	300
39.3	375
39.32	600
39.34	300
39.36	300
39.38	675
39.4	150
39.42	150
39.44	300
39.46	300
39.48	675
39.5	225
39.52	750
39.54	600
39.56	750
39.58	450
39.6	300
39.62	750
39.64	225
39.66	525
39.68	450
39.7	375
39.72	600
39.74	300
39.76	450
39.78	150
39.8	450
39.82	450
39.84	225
39.86	675
39.88	225
39.9	450
39.92	150
39.94	825
39.96	675
39.98	525
40	225
40.02	675
40.04	300
40.06	450
40.08	225
40.1	450
40.12	300
40.14	375
40.16	300
40.18	525
40.2	375
40.22	225
40.24	375
40.26	225
40.28	750
40.3	450
40.32	375
40.34	375
40.36	525
40.38	150
40.4	300
40.42	525
40.44	525
40.46	600
40.48	450
40.5	300
40.52	300
40.54	300
40.56	450
40.58	375
40.6	300
40.62	525
40.64	375
40.66	150
40.68	300
40.7	525
40.72	375
40.74	375
40.76	375
40.78	375
40.8	150
40.82	150
40.84	300
40.86	300
40.88	225
40.9	450
40.92	525
40.94	375
40.96	375
40.98	525
41	300
41.02	675
41.04	525
41.06	375
41.08	375
41.1	450
41.12	300
41.14	375
41.16	150
41.18	825
41.2	450
41.22	375
41.24	300
41.26	375
41.28	450
41.3	600
41.32	750
41.34	450
41.36	750
41.38	450
41.4	450
41.42	450
41.44	375
41.46	225
41.48	225
41.5	450
41.52	450
41.54	225
41.56	300
41.58	450
41.6	150
41.62	375
41.64	225
41.66	375
41.68	750
41.7	375
41.72	300
41.74	525
41.76	450
41.78	225
41.8	600
41.82	150
41.84	375
41.86	375
41.88	375
41.9	225
41.92	450
41.94	225
41.96	150
41.98	150
42	225
42.02	75
42.04	75
42.06	525
42.08	450
42.1	675
42.12	525
42.14	150
42.16	300
42.18	600
42.2	750
42.22	150
42.24	300
42.26	450
42.28	525
42.3	675
42.32	525
42.34	300
42.36	600
42.38	450
42.4	450
42.42	450
42.44	225
42.46	225
42.48	450
42.5	675
42.52	375
42.54	450
42.56	450
42.58	300
42.6	300
42.62	600
42.64	450
42.66	900
42.68	525
42.7	750
42.72	450
42.74	375
42.76	675
42.78	600
42.8	750
42.82	675
42.84	675
42.86	975
42.88	825
42.9	600
42.92	600
42.94	1125
42.96	1050
42.98	825
43	1350
43.02	825
43.04	1425
43.06	1275
43.08	1275
43.1	900
43.12	1200
43.14	975
43.16	1275
43.18	825
43.2	975
43.22	900
43.24	525
43.26	675
43.28	600
43.3	525
43.32	750
43.34	450
43.36	300
43.38	825
43.4	825
43.42	525
43.44	525
43.46	75
43.48	600
43.5	750
43.52	450
43.54	525
43.56	675
43.58	600
43.6	525
43.62	375
43.64	375
43.66	450
43.68	75
43.7	375
43.72	300
43.74	150
43.76	450
43.78	150
43.8	225
43.82	375
43.84	450
43.86	825
43.88	300
43.9	300
43.92	225
43.94	525
43.96	300
43.98	225
44	450
44.02	375
44.04	225
44.06	0
44.08	150
44.1	450
44.12	450
44.14	300
44.16	300
44.18	75
44.2	225
44.22	225
44.24	375
44.26	300
44.28	150
44.3	675
44.32	675
44.34	525
44.36	75
44.38	450
44.4	525
44.42	375
44.44	150
44.46	225
44.48	675
44.5	375
44.52	750
44.54	0
44.56	300
44.58	450
44.6	300
44.62	300
44.64	300
44.66	525
44.68	525
44.7	600
44.72	450
44.74	600
44.76	750
44.78	300
44.8	75
44.82	375
44.84	225
44.86	375
44.88	675
44.9	675
44.92	600
44.94	300
44.96	225
44.98	375
45	300
45.02	300
45.04	525
45.06	300
45.08	300
45.1	300
45.12	525
45.14	1050
45.16	825
45.18	225
45.2	600
45.22	450
45.24	150
45.26	300
45.28	675
45.3	225
45.32	375
45.34	450
45.36	375
45.38	225
45.4	450
45.42	450
45.44	375
45.46	375
45.48	300
45.5	750
45.52	450
45.54	150
45.56	375
45.58	75
45.6	600
45.62	450
45.64	375
45.66	750
45.68	450
45.7	225
45.72	600
45.74	600
45.76	150
45.78	300
45.8	300
45.82	225
45.84	225
45.86	75
45.88	525
45.9	375
45.92	450
45.94	375
45.96	675
45.98	225
46	300
46.02	525
46.04	300
46.06	450
46.08	375
46.1	600
46.12	675
46.14	375
46.16	300
46.18	450
46.2	300
46.22	375
46.24	300
46.26	450
46.28	750
46.3	150
46.32	225
46.34	375
46.36	300
46.38	525
46.4	900
46.42	450
46.44	225
46.46	450
46.48	300
46.5	525
46.52	675
46.54	675
46.56	525
46.58	150
46.6	150
46.62	300
46.64	375
46.66	600
46.68	600
46.7	675
46.72	600
46.74	600
46.76	375
46.78	150
46.8	300
46.82	300
46.84	225
46.86	450
46.88	300
46.9	375
46.92	300
46.94	75
46.96	300
46.98	375
47	300
47.02	225
47.04	225
47.06	375
47.08	600
47.1	225
47.12	375
47.14	225
47.16	75
47.18	150
47.2	225
47.22	450
47.24	450
47.26	300
47.28	300
47.3	450
47.32	375
47.34	75
47.36	450
47.38	375
47.4	300
47.42	150
47.44	450
47.46	525
47.48	525
47.5	375
47.52	750
47.54	525
47.56	450
47.58	225
47.6	450
47.62	225
47.64	150
47.66	825
47.68	300
47.7	150
47.72	300
47.74	300
47.76	375
47.78	450
47.8	525
47.82	300
47.84	150
47.86	225
47.88	150
47.9	150
47.92	375
47.94	525
47.96	1050
47.98	600
48	375
48.02	375
48.04	375
48.06	225
48.08	450
48.1	225
48.12	900
48.14	300
48.16	375
48.18	450
48.2	525
48.22	675
48.24	450
48.26	375
48.28	450
48.3	450
48.32	450
48.34	450
48.36	300
48.38	375
48.4	450
48.42	375
48.44	900
48.46	525
48.48	450
48.5	525
48.52	450
48.54	75
48.56	300
48.58	225
48.6	375
48.62	300
48.64	600
48.66	450
48.68	675
48.7	450
48.72	600
48.74	225
48.76	525
48.78	450
48.8	525
48.82	225
48.84	375
48.86	600
48.88	600
48.9	450
48.92	825
48.94	675
48.96	600
48.98	300
49	150
49.02	300
49.04	300
49.06	150
49.08	375
49.1	225
49.12	300
49.14	750
49.16	600
49.18	675
49.2	675
49.22	825
49.24	525
49.26	450
49.28	525
49.3	525
49.32	450
49.34	450
49.36	450
49.38	675
49.4	375
49.42	225
49.44	450
49.46	750
49.48	300
49.5	150
49.52	300
49.54	525
49.56	525
49.58	675
49.6	150
49.62	300
49.64	525
49.66	450
49.68	525
49.7	375
49.72	300
49.74	225
49.76	600
49.78	600
49.8	825
49.82	375
49.84	450
49.86	525
49.88	525
49.9	150
49.92	150
49.94	300
49.96	750
49.98	450
50	600
50.02	675
50.04	225
50.06	225
50.08	300
50.1	450
50.12	600
50.14	300
50.16	225
50.18	300
50.2	300
50.22	375
50.24	300
50.26	75
50.28	225
50.3	300
50.32	600
50.34	225
50.36	150
50.38	150
50.4	300
50.42	150
50.44	225
50.46	150
50.48	150
50.5	225
50.52	525
50.54	225
50.56	225
50.58	375
50.6	225
50.62	600
50.64	750
50.66	600
50.68	375
50.7	675
50.72	375
50.74	225
50.76	75
50.78	525
50.8	225
50.82	525
50.84	300
50.86	300
50.88	600
50.9	225
50.92	225
50.94	375
50.96	300
50.98	375
51	450
51.02	375
51.04	75
51.06	150
51.08	150
51.1	225
51.12	375
51.14	375
51.16	300
51.18	450
51.2	375
51.22	75
51.24	300
51.26	525
51.28	525
51.3	450
51.32	225
51.34	375
51.36	375
51.38	150
51.4	375
51.42	375
51.44	300
51.46	450
51.48	300
51.5	225
51.52	225
51.54	150
51.56	150
51.58	375
51.6	450
51.62	375
51.64	375
51.66	450
51.68	150
51.7	75
51.72	300
51.74	300
51.76	450
51.78	450
51.8	750
51.82	300
51.84	150
51.86	225
51.88	300
51.9	600
51.92	450
51.94	375
51.96	300
51.98	525
52	675
52.02	825
52.04	675
52.06	300
52.08	450
52.1	225
52.12	375
52.14	375
52.16	225
52.18	750
52.2	150
52.22	375
52.24	525
52.26	375
52.28	225
52.3	525
52.32	675
52.34	375
52.36	375
52.38	225
52.4	375
52.42	375
52.44	375
52.46	150
52.48	525
52.5	525
52.52	525
52.54	600
52.56	300
52.58	225
52.6	300
52.62	600
52.64	525
52.66	450
52.68	225
52.7	225
52.72	225
52.74	675
52.76	675
52.78	525
52.8	450
52.82	450
52.84	375
52.86	300
52.88	525
52.9	375
52.92	225
52.94	450
52.96	600
52.98	525
53	675
53.02	600
53.04	450
53.06	600
53.08	600
53.1	525
53.12	375
53.14	675
53.16	750
53.18	975
53.2	600
53.22	525
53.24	450
53.26	300
53.28	450
53.3	525
53.32	600
53.34	450
53.36	525
53.38	450
53.4	600
53.42	750
53.44	600
53.46	450
53.48	600
53.5	675
53.52	300
53.54	675
53.56	900
53.58	825
53.6	450
53.62	825
53.64	300
53.66	150
53.68	300
53.7	675
53.72	600
53.74	675
53.76	375
53.78	225
53.8	450
53.82	375
53.84	675
53.86	600
53.88	525
53.9	300
53.92	225
53.94	150
53.96	375
53.98	225
54	525
54.02	450
54.04	675
54.06	1050
54.08	375
54.1	300
54.12	300
54.14	375
54.16	525
54.18	450
54.2	300
54.22	300
54.24	300
54.26	300
54.28	300
54.3	375
54.32	375
54.34	300
54.36	450
54.38	600
54.4	225
54.42	300
54.44	375
54.46	150
54.48	375
54.5	450
54.52	675
54.54	300
54.56	375
54.58	675
54.6	300
54.62	600
54.64	600
54.66	825
54.68	375
54.7	375
54.72	300
54.74	600
54.76	525
54.78	375
54.8	450
54.82	600
54.84	450
54.86	450
54.88	375
54.9	450
54.92	525
54.94	750
54.96	675
54.98	300
55	450
55.02	450
55.04	450
55.06	600
55.08	375
55.1	450
55.12	525
55.14	750
55.16	225
55.18	450
55.2	450
55.22	225
55.24	150
55.26	225
55.28	75
55.3	450
55.32	600
55.34	150
55.36	675
55.38	150
55.4	750
55.42	525
55.44	300
55.46	525
55.48	225
55.5	225
55.52	225
55.54	525
55.56	450
55.58	150
55.6	450
55.62	300
55.64	450
55.66	225
55.68	450
55.7	600
55.72	225
55.74	75
55.76	300
55.78	225
55.8	75
55.82	300
55.84	525
55.86	675
55.88	225
55.9	225
55.92	150
55.94	150
55.96	450
55.98	450
56	75
56.02	375
56.04	300
56.06	375
56.08	375
56.1	150
56.12	225
56.14	600
56.16	975
56.18	525
56.2	300
56.22	300
56.24	525
56.26	900
56.28	300
56.3	375
56.32	225
56.34	375
56.36	525
56.38	300
56.4	375
56.42	525
56.44	225
56.46	375
56.48	600
56.5	600
56.52	450
56.54	525
56.56	375
56.58	150
56.6	900
56.62	600
56.64	600
56.66	675
56.68	825
56.7	525
56.72	675
56.74	900
56.76	1125
56.78	900
56.8	600
56.82	1050
56.84	975
56.86	1950
56.88	1650
56.9	1425
56.92	975
56.94	1425
56.96	750
56.98	1275
57	1200
57.02	975
57.04	1200
57.06	1425
57.08	975
57.1	900
57.12	375
57.14	900
57.16	525
57.18	1200
57.2	600
57.22	975
57.24	675
57.26	450
57.28	375
57.3	225
57.32	375
57.34	300
57.36	375
57.38	375
57.4	75
57.42	900
57.44	450
57.46	300
57.48	375
57.5	450
57.52	150
57.54	450
57.56	600
57.58	75
57.6	675
57.62	375
57.64	300
57.66	450
57.68	450
57.7	300
57.72	300
57.74	300
57.76	525
57.78	300
57.8	225
57.82	375
57.84	375
57.86	300
57.88	150
57.9	225
57.92	525
57.94	675
57.96	375
57.98	225
58	375
58.02	525
58.04	750
58.06	375
58.08	825
58.1	525
58.12	300
58.14	750
58.16	675
58.18	600
58.2	225
58.22	300
58.24	150
58.26	300
58.28	450
58.3	825
58.32	375
58.34	375
58.36	525
58.38	300
58.4	525
58.42	375
58.44	450
58.46	225
58.48	300
58.5	375
58.52	375
58.54	225
58.56	450
58.58	525
58.6	375
58.62	225
58.64	150
58.66	225
58.68	300
58.7	225
58.72	450
58.74	450
58.76	375
58.78	375
58.8	300
58.82	375
58.84	525
58.86	525
58.88	225
58.9	975
58.92	600
58.94	525
58.96	450
58.98	450
59	300
59.02	300
59.04	450
59.06	825
59.08	675
59.1	375
59.12	225
59.14	150
59.16	675
59.18	825
59.2	375
59.22	225
59.24	225
59.26	300
59.28	600
59.3	450
59.32	450
59.34	675
59.36	750
59.38	450
59.4	375
59.42	450
59.44	225
59.46	150
59.48	300
59.5	375
59.52	525
59.54	375
59.56	600
59.58	225
59.6	300
59.62	525
59.64	225
59.66	225
59.68	375
59.7	225
59.72	300
59.74	375
59.76	300
59.78	450
59.8	300
59.82	150
59.84	225
59.86	750
59.88	375
59.9	300
59.92	300
59.94	450
59.96	225
59.98	225
60	300
60.02	225
60.04	150
60.06	225
60.08	300
60.1	450
60.12	375
60.14	150
60.16	375
60.18	300
60.2	525
60.22	375
60.24	600
60.26	375
60.28	375
60.3	600
60.32	225
60.34	375
60.36	225
60.38	450
60.4	600
60.42	300
60.44	150
60.46	150
60.48	150
60.5	75
60.52	375
60.54	525
60.56	375
60.58	300
60.6	150
60.62	600
60.64	525
60.66	825
60.68	375
60.7	750
60.72	450
60.74	450
60.76	450
60.78	375
60.8	600
60.82	600
60.84	150
60.86	300
60.88	300
60.9	150
60.92	750
60.94	450
60.96	375
60.98	75
61	225
61.02	150
61.04	300
61.06	450
61.08	600
61.1	825
61.12	525
61.14	525
61.16	375
61.18	150
61.2	375
61.22	225
61.24	150
61.26	225
61.28	300
61.3	375
61.32	525
61.34	150
61.36	375
61.38	600
61.4	450
61.42	300
61.44	300
61.46	525
61.48	300
61.5	225
61.52	300
61.54	225
61.56	150
61.58	450
61.6	375
61.62	375
61.64	75
61.66	375
61.68	75
61.7	300
61.72	825
61.74	450
61.76	375
61.78	450
61.8	675
61.82	525
61.84	75
61.86	150
61.88	600
61.9	375
61.92	375
61.94	225
61.96	300
61.98	150
62	525
62.02	450
62.04	825
62.06	525
62.08	675
62.1	375
62.12	450
62.14	675
62.16	300
62.18	525
62.2	525
62.22	975
62.24	750
62.26	1050
62.28	1050
62.3	750
62.32	450
62.34	1275
62.36	975
62.38	1425
62.4	1200
62.42	1500
62.44	1350
62.46	1875
62.48	1350
62.5	1575
62.52	2100
62.54	1575
62.56	1575
62.58	1650
62.6	1125
62.62	1350
62.64	1275
62.66	900
62.68	1350
62.7	1725
62.72	1275
62.74	900
62.76	825
62.78	525
62.8	900
62.82	900
62.84	975
62.86	900
62.88	375
62.9	600
62.92	600
62.94	825
62.96	825
62.98	675
63	825
63.02	225
63.04	150
63.06	375
63.08	525
63.1	450
63.12	300
63.14	300
63.16	450
63.18	525
63.2	150
63.22	525
63.24	300
63.26	525
63.28	750
63.3	450
63.32	225
63.34	375
63.36	375
63.38	300
63.4	375
63.42	450
63.44	525
63.46	450
63.48	375
63.5	300
63.52	300
63.54	600
63.56	825
63.58	525
63.6	525
63.62	600
63.64	450
63.66	75
63.68	375
63.7	525
63.72	525
63.74	525
63.76	300
63.78	300
63.8	525
63.82	525
63.84	300
63.86	450
63.88	300
63.9	525
63.92	600
63.94	525
63.96	375
63.98	450
64	300
64.02	450
64.04	525
64.06	450
64.08	750
64.1	225
64.12	450
64.14	450
64.16	375
64.18	450
64.2	150
64.22	450
64.24	225
64.26	600
64.28	300
64.3	600
64.32	675
64.34	450
64.36	450
64.38	375
64.4	150
64.42	150
64.44	300
64.46	225
64.48	150
64.5	150
64.52	525
64.54	375
64.56	375
64.58	825
64.6	825
64.62	150
64.64	225
64.66	375
64.68	375
64.7	450
64.72	375
64.74	225
64.76	375
64.78	300
64.8	150
64.82	375
64.84	225
64.86	825
64.88	300
64.9	375
64.92	600
64.94	450
64.96	750
64.98	300
65	300
65.02	525
65.04	0
65.06	675
65.08	1050
65.1	450
65.12	300
65.14	300
65.16	300
65.18	450
65.2	300
65.22	300
65.24	375
65.26	375
65.28	150
65.3	375
65.32	450
65.34	225
65.36	150
65.38	375
65.4	450
65.42	450
65.44	225
65.46	150
65.48	375
65.5	450
65.52	450
65.54	450
65.56	525
65.58	225
65.6	300
65.62	225
65.64	225
65.66	300
65.68	675
65.7	375
65.72	375
65.74	300
65.76	375
65.78	450
65.8	525
65.82	375
65.84	675
65.86	375
65.88	600
65.9	225
65.92	450
65.94	600
65.96	300
65.98	450
66	300
66.02	375
66.04	450
66.06	450
66.08	300
66.1	450
66.12	675
66.14	300
66.16	300
66.18	525
66.2	300
66.22	300
66.24	225
66.26	300
66.28	450
66.3	300
66.32	600
66.34	750
66.36	450
66.38	300
66.4	450
66.42	375
66.44	450
66.46	375
66.48	450
66.5	300
66.52	225
66.54	300
66.56	150
66.58	525
66.6	750
66.62	300
66.64	300
66.66	525
66.68	300
66.7	300
66.72	150
66.74	375
66.76	300
66.78	375
66.8	375
66.82	300
66.84	300
66.86	300
66.88	300
66.9	600
66.92	825
66.94	150
66.96	300
66.98	375
67	300
67.02	450
67.04	375
67.06	600
67.08	450
67.1	300
67.12	225
67.14	150
67.16	375
67.18	525
67.2	375
67.22	225
67.24	450
67.26	150
67.28	450
67.3	675
67.32	675
67.34	375
67.36	300
67.38	450
67.4	225
67.42	450
67.44	150
67.46	450
67.48	600
67.5	300
67.52	150
67.54	375
67.56	600
67.58	150
67.6	600
67.62	750
67.64	525
67.66	825
67.68	375
67.7	675
67.72	375
67.74	900
67.76	825
67.78	450
67.8	375
67.82	600
67.84	450
67.86	300
67.88	375
67.9	450
67.92	300
67.94	375
67.96	225
67.98	825
68	525
68.02	375
68.04	225
68.06	300
68.08	375
68.1	300
68.12	75
68.14	375
68.16	525
68.18	525
68.2	450
68.22	525
68.24	150
68.26	300
68.28	750
68.3	375
68.32	225
68.34	75
68.36	375
68.38	225
68.4	375
68.42	675
68.44	525
68.46	450
68.48	600
68.5	225
68.52	375
68.54	300
68.56	300
68.58	300
68.6	525
68.62	450
68.64	600
68.66	600
68.68	300
68.7	300
68.72	375
68.74	525
68.76	300
68.78	225
68.8	450
68.82	450
68.84	525
68.86	750
68.88	375
68.9	675
68.92	450
68.94	600
68.96	525
68.98	600
69	450
69.02	525
69.04	525
69.06	600
69.08	75
69.1	600
69.12	375
69.14	450
69.16	600
69.18	300
69.2	150
69.22	300
69.24	450
69.26	450
69.28	600
69.3	375
69.32	1050
69.34	525
69.36	375
69.38	375
69.4	450
69.42	225
69.44	450
69.46	225
69.48	75
69.5	375
69.52	225
69.54	300
69.56	525
69.58	300
69.6	300
69.62	375
69.64	75
69.66	600
69.68	150
69.7	300
69.72	375
69.74	750
69.76	750
69.78	600
69.8	600
69.82	525
69.84	300
69.86	450
69.88	225
69.9	375
69.92	375
69.94	150
69.96	375
69.98	525
70	300
70.02	375
70.04	600
70.06	225
70.08	375
70.1	300
70.12	150
70.14	375
70.16	300
70.18	450
70.2	600
70.22	225
70.24	300
70.26	300
70.28	600
70.3	600
70.32	600
70.34	450
70.36	225
70.38	375
70.4	225
70.42	225
70.44	75
70.46	300
70.48	375
70.5	525
70.52	675
70.54	900
70.56	525
70.58	600
70.6	600
70.62	525
70.64	450
70.66	300
70.68	600
70.7	450
70.72	675
70.74	75
70.76	675
70.78	300
70.8	600
70.82	300
70.84	600
70.86	300
70.88	375
70.9	525
70.92	675
70.94	225
70.96	300
70.98	450
71	450
71.02	450
71.04	375
71.06	600
71.08	675
71.1	600
71.12	675
71.14	225
71.16	525
71.18	450
71.2	375
71.22	375
71.24	450
71.26	750
71.28	750
71.3	525
71.32	150
71.34	450
71.36	225
71.38	225
71.4	300
71.42	375
71.44	375
71.46	525
71.48	750
71.5	525
71.52	525
71.54	150
71.56	375
71.58	525
71.6	225
71.62	450
71.64	450
71.66	675
71.68	600
71.7	525
71.72	675
71.74	525
71.76	525
71.78	525
71.8	375
71.82	225
71.84	600
71.86	300
71.88	525
71.9	225
71.92	300
71.94	450
71.96	375
71.98	300
72	300
72.02	600
72.04	450
72.06	450
72.08	300
72.1	450
72.12	450
72.14	150
72.16	375
72.18	600
72.2	675
72.22	300
72.24	150
72.26	375
72.28	450
72.3	450
72.32	375
72.34	300
72.36	375
72.38	300
72.4	675
72.42	300
72.44	450
72.46	375
72.48	225
72.5	300
72.52	75
72.54	225
72.56	300
72.58	75
72.6	150
72.62	300
72.64	450
72.66	675
72.68	225
72.7	300
72.72	450
72.74	900
72.76	300
72.78	225
72.8	300
72.82	300
72.84	525
72.86	225
72.88	300
72.9	300
72.92	375
72.94	300
72.96	300
72.98	450
73	300
73.02	225
73.04	375
73.06	525
73.08	825
73.1	525
73.12	525
73.14	450
73.16	375
73.18	300
73.2	225
73.22	225
73.24	150
73.26	750
73.28	600
73.3	300
73.32	375
73.34	300
73.36	225
73.38	0
73.4	375
73.42	150
73.44	600
73.46	450
73.48	225
73.5	600
73.52	450
73.54	450
73.56	600
73.58	825
73.6	450
73.62	900
73.64	825
73.66	600
73.68	450
73.7	675
73.72	600
73.74	750
73.76	225
73.78	525
73.8	600
73.82	750
73.84	375
73.86	375
73.88	525
73.9	600
73.92	600
73.94	375
73.96	600
73.98	975
74	600
74.02	450
74.04	450
74.06	525
74.08	375
74.1	450
74.12	525
74.14	525
74.16	300
74.18	600
74.2	525
74.22	375
74.24	450
74.26	525
74.28	825
74.3	450
74.32	75
74.34	525
74.36	450
74.38	225
74.4	300
74.42	375
74.44	375
74.46	900
74.48	375
74.5	375
74.52	300
74.54	300
74.56	450
74.58	375
74.6	300
74.62	525
74.64	450
74.66	525
74.68	375
74.7	600
74.72	375
74.74	525
74.76	375
74.78	450
74.8	450
74.82	375
74.84	375
74.86	900
74.88	600
74.9	525
74.92	150
74.94	600
74.96	525
74.98	300
75	450
75.02	525
75.04	225
75.06	450
75.08	525
75.1	525
75.12	75
75.14	375
75.16	525
75.18	375
75.2	525
75.22	600
75.24	450
75.26	600
75.28	525
75.3	450
75.32	300
75.34	0
75.36	300
75.38	300
75.4	525
75.42	225
75.44	525
75.46	75
75.48	75
75.5	300
75.52	300
75.54	375
75.56	150
75.58	375
75.6	375
75.62	300
75.64	675
75.66	675
75.68	300
75.7	450
75.72	375
75.74	225
75.76	375
75.78	600
75.8	300
75.82	300
75.84	375
75.86	300
75.88	225
75.9	225
75.92	450
75.94	675
75.96	450
75.98	375
76	450
76.02	375
76.04	300
76.06	300
76.08	375
76.1	675
76.12	300
76.14	600
76.16	525
76.18	450
76.2	150
76.22	300
76.24	450
76.26	375
76.28	525
76.3	450
76.32	600
76.34	300
76.36	375
76.38	600
76.4	375
76.42	525
76.44	375
76.46	600
76.48	300
76.5	375
76.52	450
76.54	900
76.56	675
76.58	225
76.6	525
76.62	450
76.64	525
76.66	300
76.68	600
76.7	375
76.72	900
76.74	225
76.76	75
76.78	450
76.8	525
76.82	600
76.84	300
76.86	0
76.88	75
76.9	450
76.92	225
76.94	75
76.96	225
76.98	150
77	300
77.02	225
77.04	375
77.06	300
77.08	300
77.1	450
77.12	375
77.14	225
77.16	450
77.18	300
77.2	225
77.22	225
77.24	225
77.26	150
77.28	375
77.3	300
77.32	300
77.34	300
77.36	675
77.38	600
77.4	450
77.42	375
77.44	300
77.46	375
77.48	450
77.5	300
77.52	300
77.54	525
77.56	600
77.58	75
77.6	150
77.62	225
77.64	225
77.66	675
77.68	750
77.7	375
77.72	300
77.74	375
77.76	300
77.78	525
77.8	375
77.82	225
77.84	375
77.86	525
77.88	450
77.9	375
77.92	525
77.94	300
77.96	375
77.98	525
78	225
78.02	300
78.04	450
78.06	600
78.08	300
78.1	600
78.12	150
78.14	450
78.16	450
78.18	450
78.2	375
78.22	300
78.24	375
78.26	750
78.28	450
78.3	300
78.32	75
78.34	450
78.36	525
78.38	225
78.4	675
78.42	525
78.44	375
78.46	75
78.48	0
78.5	225
78.52	375
78.54	525
78.56	225
78.58	225
78.6	225
78.62	225
78.64	375
78.66	225
78.68	450
78.7	600
78.72	675
78.74	525
78.76	375
78.78	150
78.8	450
78.82	300
78.84	525
78.86	750
78.88	825
78.9	225
78.92	450
78.94	525
78.96	375
78.98	300
79	225
79.02	450
79.04	675
79.06	450
79.08	375
79.1	225
79.12	225
79.14	450
79.16	450
79.18	375
79.2	600
79.22	225
79.24	450
79.26	300
79.28	525
79.3	825
79.32	375
79.34	225
79.36	450
79.38	450
79.4	150
79.42	225
79.44	375
79.46	75
79.48	225
79.5	300
79.52	225
79.54	75
79.56	375
79.58	525
79.6	375
79.62	225
79.64	150
79.66	375
79.68	375
79.7	300
79.72	225
79.74	450
79.76	675
79.78	600
79.8	525
79.82	450
79.84	300
79.86	750
79.88	525
79.9	600
79.92	525
79.94	525
79.96	375
79.98	225
80	375
80.02	675
80.04	225
80.06	450
80.08	525
80.1	375
80.12	375
80.14	300
80.16	300
80.18	450
80.2	600
80.22	375
80.24	375
80.26	300
80.28	525
80.3	225
80.32	525
80.34	300
80.36	225
80.38	300
80.4	525
80.42	525
80.44	225
80.46	600
80.48	600
80.5	75
80.52	150
80.54	225
80.56	150
80.58	225
80.6	225
80.62	225
80.64	375
80.66	450
80.68	450
80.7	450
80.72	450
80.74	225
80.76	525
80.78	750
80.8	750
80.82	375
80.84	150
80.86	150
80.88	450
80.9	150
80.92	525
80.94	600
80.96	375
80.98	450
81	375
81.02	225
81.04	0
81.06	225
81.08	300
81.1	300
81.12	150
81.14	375
81.16	300
81.18	450
81.2	675
81.22	525
81.24	225
81.26	150
81.28	150
81.3	300
81.32	450
81.34	600
81.36	0
81.38	225
81.4	450
81.42	450
81.44	750
81.46	375
81.48	225
81.5	600
81.52	600
81.54	300
81.56	300
81.58	0
81.6	300
81.62	375
81.64	225
81.66	375
81.68	450
81.7	675
81.72	75
81.74	75
81.76	150
81.78	150
81.8	225
81.82	375
81.84	225
81.86	525
81.88	450
81.9	450
81.92	75
81.94	150
81.96	450
81.98	600
82	375
82.02	300
82.04	150
82.06	225
82.08	225
82.1	300
82.12	300
82.14	225
82.16	450
82.18	975
82.2	300
82.22	375
82.24	450
82.26	375
82.28	375
82.3	525
82.32	975
82.34	600
82.36	675
82.38	450
82.4	225
82.42	525
82.44	300
82.46	300
82.48	375
82.5	150
82.52	375
82.54	450
82.56	300
82.58	150
82.6	150
82.62	225
82.64	525
82.66	375
82.68	225
82.7	225
82.72	450
82.74	375
82.76	450
82.78	300
82.8	675
82.82	300
82.84	300
82.86	300
82.88	225
82.9	300
82.92	525
82.94	300
82.96	450
82.98	450
83	300
83.02	600
83.04	675
83.06	300
83.08	375
83.1	600
83.12	225
83.14	375
83.16	75
83.18	150
83.2	525
83.22	225
83.24	75
83.26	375
83.28	225
83.3	300
83.32	225
83.34	375
83.36	450
83.38	150
83.4	375
83.42	675
83.44	450
83.46	450
83.48	375
83.5	75
83.52	300
83.54	450
83.56	450
83.58	450
83.6	225
83.62	150
83.64	300
83.66	150
83.68	225
83.7	225
83.72	225
83.74	300
83.76	300
83.78	300
83.8	150
83.82	150
83.84	375
83.86	450
83.88	225
83.9	450
83.92	675
83.94	225
83.96	450
83.98	450
84	225
84.02	300
84.04	675
84.06	300
84.08	225
84.1	525
84.12	300
84.14	450
84.16	150
84.18	300
84.2	600
84.22	225
84.24	450
84.26	225
84.28	300
84.3	300
84.32	300
84.34	450
84.36	300
84.38	750
84.4	225
84.42	450
84.44	375
84.46	375
84.48	675
84.5	375
84.52	150
84.54	450
84.56	525
84.58	600
84.6	375
84.62	375
84.64	375
84.66	150
84.68	150
84.7	75
84.72	300
84.74	300
84.76	450
84.78	225
84.8	75
84.82	0
84.84	525
84.86	300
84.88	375
84.9	525
84.92	525
84.94	375
84.96	300
84.98	300
85	525
85.02	600
85.04	375
85.06	150
85.08	450
85.1	300
85.12	450
85.14	450
85.16	675
85.18	825
85.2	525
85.22	75
85.24	525
85.26	225
85.28	375
85.3	300
85.32	75
85.34	150
85.36	225
85.38	225
85.4	450
85.42	225
85.44	75
85.46	300
85.48	525
85.5	225
85.52	300
85.54	150
85.56	225
85.58	450
85.6	375
85.62	525
85.64	450
85.66	225
85.68	150
85.7	150
85.72	150
85.74	225
85.76	225
85.78	300
85.8	75
85.82	225
85.84	225
85.86	525
85.88	375
85.9	300
85.92	375
85.94	600
85.96	450
85.98	375
86	300
86.02	300
86.04	300
86.06	300
86.08	300
86.1	375
86.12	225
86.14	75
86.16	150
86.18	300
86.2	375
86.22	375
86.24	375
86.26	300
86.28	300
86.3	375
86.32	150
86.34	225
86.36	225
86.38	225
86.4	525
86.42	300
86.44	150
86.46	225
86.48	450
86.5	525
86.52	150
86.54	75
86.56	75
86.58	300
86.6	375
86.62	600
86.64	450
86.66	300
86.68	375
86.7	375
86.72	300
86.74	600
86.76	375
86.78	300
86.8	225
86.82	75
86.84	225
86.86	375
86.88	375
86.9	225
86.92	300
86.94	450
86.96	300
86.98	375
87	375
87.02	150
87.04	150
87.06	300
87.08	225
87.1	75
87.12	300
87.14	150
87.16	375
87.18	300
87.2	525
87.22	375
87.24	150
87.26	75
87.28	150
87.3	450
87.32	300
87.34	150
87.36	225
87.38	75
87.4	225
87.42	300
87.44	300
87.46	375
87.48	225
87.5	150
87.52	300
87.54	150
87.56	450
87.58	150
87.6	225
87.62	300
87.64	150
87.66	300
87.68	300
87.7	150
87.72	75
87.74	300
87.76	75
87.78	225
87.8	75
87.82	75
87.84	150
87.86	375
87.88	375
87.9	300
87.92	225
87.94	300
87.96	375
87.98	675
88	150
88.02	300
88.04	225
88.06	150
88.08	150
88.1	375
88.12	225
88.14	75
88.16	0
88.18	75
88.2	300
88.22	225
88.24	300
88.26	150
88.28	525
88.3	300
88.32	450
88.34	450
88.36	450
88.38	525
88.4	225
88.42	75
88.44	375
88.46	375
88.48	450
88.5	150
88.52	225
88.54	150
88.56	300
88.58	150
88.6	225
88.62	525
88.64	225
88.66	375
88.68	300
88.7	375
88.72	225
88.74	450
88.76	300
88.78	375
88.8	225
88.82	75
88.84	375
88.86	150
88.88	225
88.9	75
88.92	375
88.94	525
88.96	300
88.98	75
89	300
89.02	150
89.04	300
89.06	525
89.08	450
89.1	300
89.12	375
89.14	375
89.16	375
89.18	225
89.2	300
89.22	375
89.24	225
89.26	300
89.28	600
89.3	375
89.32	300
89.34	600
89.36	225
89.38	300
89.4	375
89.42	225
89.44	300
89.46	375
89.48	600
89.5	525
89.52	375
89.54	300
89.56	300
89.58	450
89.6	600
89.62	525
89.64	450
89.66	375
89.68	900
89.7	525
89.72	450
89.74	300
89.76	225
89.78	600
89.8	375
89.82	225
89.84	525
89.86	375
89.88	450
89.9	300
89.92	750
89.94	600
89.96	450
89.98	300
90	225

