10.0000   43
10.0498   41
10.0998   45
10.1498   36
10.1998   54
10.2498   38
10.2998   46
10.3498   42
10.3998   48
10.4498   44
10.4998   47
10.5498   52
10.5998   52
10.6498   37
10.6998   38
10.7498   39
10.7998   50
10.8498   33
10.8998   40
10.9498   41
10.9998   49
11.0498   49
11.0998   46
11.1498   46
11.1998   34
11.2498   43
11.2998   28
11.3498   34
11.3998   40
11.4498   32
11.4998   35
11.5498   51
11.5998   31
11.6498   35
11.6998   53
11.7498   38
11.7998   32
11.8498   43
11.8998   42
11.9498   41
11.9998   37
12.0498   48
12.0998   52
12.1498   42
12.1998   32
12.2498   43
12.2998   28
12.3498   44
12.3998   30
12.4498   30
12.4998   34
12.5498   32
12.5998   35
12.6498   31
12.6998   34
12.7498   33
12.7998   36
12.8498   48
12.8998   43
12.9498   46
12.9998   19
13.0498   35
13.0998   33
13.1498   31
13.1998   42
13.2498   33
13.2998   32
13.3498   38
13.3998   32
13.4498   27
13.4998   31
13.5498   21
13.5998   23
13.6498   28
13.6998   40
13.7498   38
13.7998   35
13.8498   38
13.8998   28
13.9498   39
13.9998   34
14.0498   36
14.0998   31
14.1498   30
14.1998   47
14.2498   28
14.2998   31
14.3498   31
14.3998   30
14.4498   32
14.4998   33
14.5498   28
14.5998   27
14.6498   28
14.6998   21
14.7498   41
14.7998   20
14.8498   37
14.8998   31
14.9498   24
14.9998   29
15.0498   31
15.0998   32
15.1498   32
15.1998   30
15.2498   26
15.2998   33
15.3498   26
15.3998   27
15.4498   30
15.4998   34
15.5498   30
15.5998   45
15.6498   30
15.6998   24
15.7498   34
15.7998   24
15.8498   23
15.8998   31
15.9498   25
15.9998   32
16.0498   34
16.0998   28
16.1498   37
16.1998   30
16.2498   28
16.2998   27
16.3498   18
16.3998   32
16.4498   30
16.4998   28
16.5498   30
16.5998   27
16.6498   41
16.6998   24
16.7498   25
16.7998   25
16.8498   29
16.8998   31
16.9498   25
16.9998   34
17.0498   28
17.0998   23
17.1498   29
17.1998   34
17.2498   25
17.2998   26
17.3498   28
17.3998   19
17.4498   25
17.4998   29
17.5498   35
17.5998   29
17.6498   32
17.6998   25
17.7498   27
17.7998   30
17.8498   26
17.8998   25
17.9498   29
17.9998   22
18.0498   34
18.0998   31
18.1498   38
18.1998   33
18.2498   32
18.2998   22
18.3498   32
18.3998   35
18.4498   30
18.4998   39
18.5498   25
18.5998   41
18.6498   28
18.6998   28
18.7498   23
18.7998   31
18.8498   31
18.8998   26
18.9498   26
18.9998   30
19.0498   25
19.0998   26
19.1498   28
19.1998   19
19.2498   28
19.2998   25
19.3498   28
19.3998   28
19.4498   18
19.4998   27
19.5498   22
19.5998   23
19.6498   28
19.6998   26
19.7498   38
19.7998   25
19.8498   21
19.8998   24
19.9498   24
19.9996   23
20.0496   24
20.0996   15
20.1496   37
20.1996   21
20.2496   30
20.2996   28
20.3496   34
20.3996   31
20.4496   20
20.4996   19
20.5496   21
20.5996   26
20.6496   29
20.6996   22
20.7496   32
20.7996   32
20.8496   27
20.8996   22
20.9496   21
20.9996   28
21.0496   31
21.0996   22
21.1496   33
21.1996   31
21.2496   24
21.2996   24
21.3496   32
21.3996   32
21.4496   26
21.4996   21
21.5496   30
21.5996   26
21.6496   16
21.6996   40
21.7496   28
21.7996   29
21.8496   34
21.8996   27
21.9496   23
21.9996   38
22.0496   31
22.0996   36
22.1496   29
22.1996   27
22.2496   30
22.2996   25
22.3496   38
22.3996   29
22.4496   24
22.4996   30
22.5496   26
22.5996   31
22.6496   44
22.6996   26
22.7496   29
22.7996   26
22.8496   34
22.8996   42
22.9496   43
22.9996   31
23.0496   27
23.0996   46
23.1496   39
23.1996   38
23.2496   47
23.2996   41
23.3496   49
23.3996   35
23.4496   49
23.4996   34
23.5496   55
23.5996   42
23.6496   38
23.6996   46
23.7496   42
23.7996   49
23.8496   52
23.8996   53
23.9496   56
23.9996   48
24.0496   46
24.0996   55
24.1496   56
24.1996   60
24.2496   72
24.2996   72
24.3496   92
24.3996   82
24.4496   74
24.4996   80
24.5496   74
24.5996   60
24.6496   77
24.6996   84
24.7496   77
24.7996   80
24.8496   86
24.8996   93
24.9496   83
24.9996   84
25.0496   96
25.0996   90
25.1496   114
25.1996   106
25.2496   108
25.2996   119
25.3496   104
25.3996   90
25.4496   127
25.4996   109
25.5496   117
25.5996   127
25.6496   106
25.6996   119
25.7496   123
25.7996   118
25.8496   132
25.8996   134
25.9496   134
25.9996   132
26.0496   102
26.0996   133
26.1496   145
26.1996   138
26.2496   120
26.2996   125
26.3496   126
26.3996   114
26.4496   116
26.4996   117
26.5496   117
26.5996   113
26.6496   127
26.6996   110
26.7496   134
26.7996   110
26.8496   102
26.8996   106
26.9496   95
26.9996   86
27.0496   107
27.0996   81
27.1496   97
27.1996   74
27.2496   83
27.2996   85
27.3496   81
27.3996   76
27.4496   68
27.4996   91
27.5496   81
27.5996   90
27.6496   55
27.6996   84
27.7496   75
27.7996   80
27.8496   73
27.8996   92
27.9496   72
27.9996   80
28.0496   75
28.0996   82
28.1496   58
28.1996   69
28.2496   78
28.2996   65
28.3496   67
28.3996   67
28.4496   73
28.4996   58
28.5496   69
28.5996   65
28.6496   58
28.6996   65
28.7496   59
28.7996   61
28.8496   67
28.8996   63
28.9496   61
28.9996   44
29.0496   52
29.0996   55
29.1496   53
29.1996   51
29.2496   51
29.2996   52
29.3496   39
29.3996   44
29.4496   46
29.4996   42
29.5496   39
29.5996   48
29.6496   47
29.6996   34
29.7496   43
29.7996   44
29.8496   47
29.8996   36
29.9495   48
29.9994   36
30.0494   46
30.0994   26
30.1494   33
30.1994   35
30.2494   44
30.2994   40
30.3494   42
30.3994   39
30.4494   41
30.4994   46
30.5494   41
30.5994   43
30.6494   54
30.6994   60
30.7494   38
30.7994   36
30.8494   28
30.8994   48
30.9494   35
30.9994   52
31.0494   34
31.0994   34
31.1494   50
31.1994   39
31.2494   38
31.2994   41
31.3494   47
31.3994   54
31.4494   33
31.4994   66
31.5494   52
31.5994   42
31.6494   43
31.6994   39
31.7494   45
31.7994   45
31.8494   54
31.8994   45
31.9494   52
31.9994   35
32.0494   49
32.0994   43
32.1494   46
32.1994   49
32.2494   48
32.2994   55
32.3494   54
32.3994   52
32.4494   47
32.4994   48
32.5494   52
32.5994   44
32.6494   48
32.6994   49
32.7494   64
32.7994   44
32.8494   48
32.8994   69
32.9494   61
32.9994   65
33.0494   64
33.0994   85
33.1494   70
33.1994   81
33.2494   79
33.2994   86
33.3494   90
33.3994   104
33.4494   78
33.4994   81
33.5494   58
33.5994   73
33.6494   66
33.6994   58
33.7494   57
33.7994   39
33.8494   45
33.8994   45
33.9494   47
33.9994   52
34.0494   40
34.0994   52
34.1494   51
34.1994   48
34.2494   41
34.2994   48
34.3494   45
34.3994   42
34.4494   35
34.4994   43
34.5494   36
34.5994   40
34.6494   39
34.6994   38
34.7494   52
34.7994   45
34.8494   47
34.8994   41
34.9494   53
34.9994   59
35.0494   53
35.0994   54
35.1494   53
35.1994   50
35.2494   46
35.2994   64
35.3494   56
35.3994   97
35.4494   74
35.4994   91
35.5494   100
35.5994   128
35.6494   113
35.6994   127
35.7494   116
35.7994   146
35.8494   142
35.8994   145
35.9494   162
35.9994   144
36.0494   140
36.0994   134
36.1494   105
36.1994   94
36.2494   91
36.2994   98
36.3494   91
36.3994   93
36.4494   99
36.4994   86
36.5494   80
36.5994   75
36.6494   86
36.6994   62
36.7494   73
36.7994   60
36.8494   62
36.8994   63
36.9494   68
36.9994   73
37.0494   52
37.0994   40
37.1494   32
37.1994   48
37.2494   53
37.2994   44
37.3494   39
37.3994   40
37.4494   31
37.4994   32
37.5494   27
37.5994   33
37.6494   33
37.6994   33
37.7494   35
37.7994   36
37.8494   37
37.8994   25
37.9494   25
37.9994   23
38.0494   28
38.0994   37
38.1494   27
38.1994   30
38.2494   20
38.2994   28
38.3494   26
38.3994   21
38.4494   22
38.4994   17
38.5494   19
38.5994   25
38.6494   32
38.6994   17
38.7494   24
38.7994   26
38.8494   27
38.8994   29
38.9494   20
38.9994   31
39.0494   33
39.0994   35
39.1494   26
39.1994   30
39.2494   37
39.2994   23
39.3494   35
39.3994   35
39.4494   25
39.4994   37
39.5494   42
39.5994   53
39.6494   38
39.6994   39
39.7494   42
39.7994   37
39.8494   36
39.8994   36
39.9493   25
39.9992   28
40.0492   35
40.0992   35
40.1492   25
40.1992   15
40.2492   37
40.2992   34
40.3492   35
40.3992   29
40.4492   27
40.4992   34
40.5492   20
40.5992   30
40.6492   27
40.6992   23
40.7492   22
40.7992   38
40.8492   36
40.8992   43
40.9492   35
40.9992   43
41.0492   50
41.0992   51
41.1492   50
41.1992   48
41.2492   39
41.2992   43
41.3492   35
41.3992   40
41.4492   60
41.4992   37
41.5492   43
41.5992   33
41.6492   26
41.6992   25
41.7492   25
41.7992   28
41.8492   27
41.8992   25
41.9492   30
41.9992   25
42.0492   35
42.0992   26
42.1492   41
42.1992   34
42.2492   26
42.2992   36
42.3492   29
42.3992   35
42.4492   31
42.4992   44
42.5492   36
42.5992   42
42.6492   44
42.6992   30
42.7492   31
42.7992   43
42.8492   36
42.8992   44
42.9492   42
42.9992   40
43.0492   40
43.0992   44
43.1492   37
43.1992   34
43.2492   45
43.2992   30
43.3492   33
43.3992   36
43.4492   42
43.4992   34
43.5492   39
43.5992   29
43.6492   25
43.6992   28
43.7492   35
43.7992   43
43.8492   23
43.8992   34
43.9492   32
43.9992   31
44.0492   30
44.0992   35
44.1492   24
44.1992   31
44.2492   41
44.2992   25
44.3492   23
44.3992   30
44.4492   26
44.4992   26
44.5492   32
44.5992   30
44.6492   26
44.6992   25
44.7492   35
44.7992   19
44.8492   18
44.8992   21
44.9492   27
44.9992   13
45.0492   27
45.0992   23
45.1492   27
45.1992   27
45.2492   34
45.2992   25
45.3492   26
45.3992   11
45.4492   25
45.4992   29
45.5492   32
45.5992   26
45.6492   21
45.6992   24
45.7492   19
45.7992   27
45.8492   23
45.8992   26
45.9492   18
45.9992   34
46.0492   22
46.0992   23
46.1492   18
46.1992   29
46.2492   23
46.2992   23
46.3492   38
46.3992   30
46.4492   18
46.4992   31
46.5492   25
46.5992   25
46.6492   34
46.6992   27
46.7492   17
46.7992   41
46.8492   25
46.8992   35
46.9492   30
46.9992   23
47.0492   24
47.0992   35
47.1492   17
47.1992   26
47.2492   23
47.2992   21
47.3492   28
47.3992   25
47.4492   30
47.4992   28
47.5492   25
47.5992   21
47.6492   32
47.6992   30
47.7492   23
47.7992   19
47.8492   25
47.8992   25
47.9492   27
47.9992   32
48.0492   22
48.0992   26
48.1492   25
48.1992   27
48.2492   23
48.2992   26
48.3492   25
48.3992   32
48.4492   27
48.4992   28
48.5492   23
48.5992   26
48.6492   31
48.6992   25
48.7492   34
48.7992   28
48.8492   38
48.8992   23
48.9492   27
48.9992   30
49.0492   31
49.0992   31
49.1492   37
49.1992   32
49.2492   38
49.2992   42
49.3492   40
49.3992   41
49.4492   27
49.4992   31
49.5492   46
49.5992   38
49.6492   48
49.6992   48
49.7492   52
49.7992   35
49.8492   38
49.8991   34
49.9491   31
49.9990   29
50.0490   30
50.0990   30
50.1490   28
50.1990   25
50.2490   33
50.2990   25
50.3490   28
50.3990   26
50.4490   36
50.4990   28
50.5490   22
50.5990   18
50.6490   25
50.6990   20
50.7490   20
50.7990   17
50.8490   33
50.8990   23
50.9490   18
50.9990   29
51.0490   30
51.0990   26
51.1490   22
51.1990   24
51.2490   22
51.2990   14
51.3490   29
51.3990   21
51.4490   19
51.4990   27
51.5490   25
51.5990   20
51.6490   23
51.6990   20
51.7490   27
51.7990   14
51.8490   23
51.8990   16
51.9490   22
51.9990   18
52.0490   24
52.0990   22
52.1490   29
52.1990   21
52.2490   24
52.2990   26
52.3490   16
52.3990   19
52.4490   18
52.4990   32
52.5490   23
52.5990   23
52.6490   21
52.6990   22
52.7490   28
52.7990   28
52.8490   22
52.8990   31
52.9490   31
52.9990   25
53.0490   22
53.0990   19
53.1490   32
53.1990   30
53.2490   19
53.2990   36
53.3490   26
53.3990   23
53.4490   29
53.4990   26
53.5490   23
53.5990   16
53.6490   21
53.6990   21
53.7490   25
53.7990   32
53.8490   30
53.8990   28
53.9490   19
53.9990   40
54.0490   27
54.0990   42
54.1490   32
54.1990   43
54.2490   45
54.2990   40
54.3490   43
54.3990   47
54.4490   44
54.4990   38
54.5490   39
54.5990   31
54.6490   33
54.6990   37
54.7490   24
54.7990   25
54.8490   27
54.8990   22
54.9490   30
54.9990   30
55.0490   29
55.0990   35
55.1490   28
55.1990   20
55.2490   22
55.2990   22
55.3490   27
55.3990   25
55.4490   25
55.4990   33
55.5490   26
55.5990   22
55.6490   38
55.6990   31
55.7490   40
55.7990   27
55.8490   28
55.8990   36
55.9490   19
55.9990   39
56.0490   34
56.0990   40
56.1490   36
56.1990   44
56.2490   45
56.2990   52
56.3490   56
56.3990   44
56.4490   55
56.4990   59
56.5490   54
56.5990   40
56.6490   43
56.6990   43
56.7490   38
56.7990   58
56.8490   44
56.8990   37
56.9490   53
56.9990   32
57.0490   35
57.0990   42
57.1490   32
57.1990   29
57.2490   25
57.2990   26
57.3490   41
57.3990   29
57.4490   28
57.4990   30
57.5490   31
57.5990   30
57.6490   20
57.6990   26
57.7490   35
57.7990   38
57.8490   28
57.8990   32
57.9490   21
57.9990   27
58.0490   25
58.0990   29
58.1490   32
58.1990   21
58.2490   24
58.2990   30
58.3490   24
58.3990   19
58.4490   28
58.4990   18
58.5490   31
58.5990   25
58.6490   36
58.6990   23
58.7490   23
58.7990   21
58.8490   21
58.8990   20
58.9490   26
58.9990   20
59.0490   33
59.0990   23
59.1490   28
59.1990   31
59.2490   33
59.2990   29
59.3490   22
59.3990   22
59.4490   14
59.4990   24
59.5490   29
59.5990   18
59.6490   37
59.6990   19
59.7490   26
59.7990   20
59.8490   28
59.8989   32
59.9489   29
59.9988   36
60.0488   29
60.0988   24
60.1488   29
60.1988   21
60.2488   35
60.2988   30
60.3488   31
60.3988   37
60.4488   23
60.4988   19
60.5488   30
60.5988   25
60.6488   28
60.6988   21
60.7488   32
60.7988   24
60.8488   21
60.8988   19
60.9488   29
60.9988   30
61.0488   26
61.0988   18
61.1488   17
61.1988   28
61.2488   22
61.2988   26
61.3488   17
61.3988   30
61.4488   27
61.4988   21
61.5488   23
61.5988   18
61.6488   15
61.6988   19
61.7488   21
61.7988   22
61.8488   27
61.8988   20
61.9488   22
61.9988   19
62.0488   19
62.0988   33
62.1488   23
62.1988   45
62.2488   31
62.2988   24
62.3488   33
62.3988   27
62.4488   48
62.4988   35
62.5488   43
62.5988   41
62.6488   35
62.6988   53
62.7488   47
62.7988   34
62.8488   54
62.8988   44
62.9488   39
62.9988   40
63.0488   36
63.0988   42
63.1488   28
63.1988   35
63.2488   23
63.2988   41
63.3488   44
63.3988   29
63.4488   28
63.4988   23
63.5488   23
63.5988   22
63.6488   16
63.6988   26
63.7488   24
63.7988   24
63.8488   30
63.8988   40
63.9488   34
63.9988   33
64.0488   41
64.0988   42
64.1488   33
64.1988   35
64.2488   51
64.2988   43
64.3488   38
64.3988   42
64.4488   48
64.4988   35
64.5488   38
64.5988   33
64.6488   44
64.6988   35
64.7488   31
64.7988   31
64.8488   31
64.8988   35
64.9488   22
64.9988   22
65.0488   30
65.0988   31
65.1488   31
65.1988   32
65.2488   28
65.2988   26
65.3488   23
65.3988   25
65.4488   27
65.4988   27
65.5488   27
65.5988   24
65.6488   30
65.6988   31
65.7488   25
65.7988   18
65.8488   31
65.8988   22
65.9488   22
65.9988   25
66.0488   24
66.0988   20
66.1488   30
66.1988   20
66.2488   19
66.2988   21
66.3488   23
66.3988   19
66.4488   19
66.4988   7
66.5488   15
66.5988   14
66.6488   29
66.6988   17
66.7488   24
66.7988   16
66.8488   17
66.8988   16
66.9488   17
66.9988   19
67.0488   21
67.0988   18
67.1488   30
67.1988   21
67.2488   15
67.2988   19
67.3488   22
67.3988   20
67.4488   18
67.4988   16
67.5488   13
67.5988   12
67.6488   27
67.6988   14
67.7488   21
67.7988   23
67.8488   18
67.8988   17
67.9488   16
67.9988   25
68.0488   16
68.0988   20
68.1488   19
68.1988   26
68.2488   19
68.2988   19
68.3488   18
68.3988   10
68.4488   23
68.4988   14
68.5488   20
68.5988   8
68.6488   19
68.6988   15
68.7488   25
68.7988   16
68.8488   18
68.8988   13
68.9488   17
68.9988   14
69.0488   13
69.0988   11
69.1488   15
69.1988   12
69.2488   8
69.2988   14
69.3488   16
69.3988   23
69.4488   19
69.4988   11
69.5488   22
69.5988   16
69.6488   20
69.6988   23
69.7488   14
69.7988   20
69.8488   20
69.8988   15
69.9488   14
69.9988   15
70.0488   19
70.0988   13
70.1488   12
70.1987   16
70.2487   11
70.2986   18
70.3486   14
70.3986   18
70.4486   21
70.4986   15
70.5486   18
70.5986   9
70.6486   15
70.6986   15
70.7486   13
70.7986   9
70.8486   15
70.8986   18
70.9486   18
70.9986   13
71.0486   13
71.0986   23
71.1486   16
71.1986   16
71.2486   11
71.2986   13
71.3486   12
71.3986   21
71.4486   9
71.4986   9
71.5486   21
71.5986   17
71.6486   16
71.6986   18
71.7486   15
71.7986   6
71.8486   18
71.8986   16
71.9486   17
71.9986   10
72.0486   17
72.0986   19
72.1486   20
72.1986   16
72.2486   16
72.2986   12
72.3486   13
72.3986   16
72.4486   11
72.4986   16
72.5486   14
72.5986   10
72.6486   20
72.6986   20
72.7486   20
72.7986   15
72.8486   13
72.8986   16
72.9486   18
72.9986   12
73.0486   15
73.0986   14
73.1486   22
73.1986   20
73.2486   9
73.2986   16
73.3486   12
73.3986   7
73.4486   8
73.4986   10
73.5486   8
73.5986   11
73.6486   14
73.6986   13
73.7486   6
73.7986   16
73.8486   7
73.8986   10
73.9486   13
73.9986   12
74.0486   15
74.0986   11
74.1486   13
74.1986   7
74.2486   15
74.2986   17
74.3486   15
74.3986   12
74.4486   9
74.4986   13
74.5486   12
74.5986   17
74.6486   19
74.6986   14
74.7486   20
74.7986   20
74.8486   16
74.8986   21
74.9486   19
74.9986   12
75.0486   18
75.0986   18
75.1486   15
75.1986   6
75.2486   12
75.2986   19
75.3486   14
75.3986   11
75.4486   17
75.4986   12
75.5486   12
75.5986   11
75.6486   15
75.6986   19
75.7486   14
75.7986   14
75.8486   12
75.8986   17
75.9486   13
75.9986   8
76.0486   20
76.0986   15
76.1486   13
76.1986   15
76.2486   12
76.2986   14
76.3486   9
76.3986   8
76.4486   10
76.4986   8
76.5486   14
76.5986   11
76.6486   13
76.6986   11
76.7486   17
76.7986   13
76.8486   17
76.8986   10
76.9486   13
76.9986   15
77.0486   21
77.0986   16
77.1486   11
77.1986   14
77.2486   10
77.2986   13
77.3486   12
77.3986   11
77.4486   11
77.4986   19
77.5486   19
77.5986   5
77.6486   12
77.6986   19
77.7486   15
77.7986   16
77.8486   14
77.8986   12
77.9486   16
77.9986   16
78.0486   15
78.0986   14
78.1486   16
78.1986   17
78.2486   12
78.2986   17
78.3486   26
78.3986   12
78.4486   16
78.4986   15
78.5486   21
78.5986   20
78.6486   17
78.6986   17
78.7486   14
78.7986   21
78.8486   14
78.8986   16
78.9486   20
78.9986   17
79.0486   13
79.0986   7
79.1486   18
79.1986   12
79.2486   15
79.2986   14
79.3486   14
79.3986   16
79.4486   19
79.4986   9
79.5486   16
79.5986   11
79.6486   13
79.6986   16
79.7486   19
79.7986   14
79.8486   14
79.8986   16
79.9486   16
79.9986   18
80.0486   13
80.0986   12
80.1486   12
80.1985   15
80.2485   20
80.2984   16
80.3484   16
80.3984   16
80.4484   18
80.4984   24
80.5484   14
80.5984   22
80.6484   12
80.6984   23
80.7484   17
80.7984   12
80.8484   16
80.8984   14
80.9484   18
80.9984   15
81.0484   17
81.0984   17
81.1484   19
81.1984   24
81.2484   12
81.2984   14
81.3484   13
81.3984   13
81.4484   12
81.4984   23
81.5484   14
81.5984   14
81.6484   16
81.6984   6
81.7484   11
81.7984   15
81.8484   13
81.8984   13
81.9484   12
81.9984   14
82.0484   13
82.0984   7
82.1484   15
82.1984   11
82.2484   12
82.2984   11
82.3484   12
82.3984   12
82.4484   9
82.4984   11
82.5484   10
82.5984   10
82.6484   16
82.6984   10
82.7484   11
82.7984   10
82.8484   13
82.8984   14
82.9484   11
82.9984   15
83.0484   6
83.0984   24
83.1484   10
83.1984   12
83.2484   14
83.2984   18
83.3484   9
83.3984   13
83.4484   8
83.4984   9
83.5484   16
83.5984   19
83.6484   11
83.6984   9
83.7484   10
83.7984   14
83.8484   13
83.8984   15
83.9484   10
83.9984   7
84.0484   15
84.0984   12
84.1484   12
84.1984   8
84.2484   10
84.2984   11
84.3484   18
84.3984   15
84.4484   11
84.4984   12
84.5484   6
84.5984   12
84.6484   11
84.6984   17
84.7484   9
84.7984   16
84.8484   18
84.8984   16
84.9484   19
84.9984   10
85.0484   25
85.0984   13
85.1484   18
85.1984   13
85.2484   12
85.2984   25
85.3484   19
85.3984   14
85.4484   11
85.4984   10
85.5484   16
85.5984   18
85.6484   26
85.6984   11
85.7484   11
85.7984   12
85.8484   13
85.8984   15
85.9484   17
85.9984   11
86.0484   9
86.0984   13
86.1484   10
86.1984   14
86.2484   12
86.2984   10
86.3484   10
86.3984   16
86.4484   11
86.4984   9
86.5484   8
86.5984   13
86.6484   5
86.6984   12
86.7484   15
86.7984   12
86.8484   17
86.8984   9
86.9484   16
86.9984   19
87.0484   12
87.0984   19
87.1484   18
87.1984   14
87.2484   5
87.2984   10
87.3484   14
87.3984   16
87.4484   16
87.4984   18
87.5484   16
87.5984   19
87.6484   24
87.6984   15
87.7484   12
87.7984   18
87.8484   11
87.8984   12
87.9484   14
87.9984   13
88.0484   12
88.0984   14
88.1484   12
88.1984   8
88.2484   9
88.2984   21
88.3484   13
88.3984   10
88.4484   9
88.4984   9
88.5484   9
88.5984   12
88.6484   15
88.6984   14
88.7484   19
88.7984   13
88.8484   14
88.8984   17
88.9484   14
88.9984   16
89.0484   15
89.0984   14
89.1484   8
89.1984   9
89.2484   13
89.2984   20
89.3484   9
89.3984   10
89.4484   12
89.4984   11
89.5484   15
89.5984   16
89.6484   11
89.6984   11
89.7484   11
89.7984   9
89.8484   8
89.8984   14
89.9484   9
89.9984   12
