10.0000   111
10.0498   109
10.0998   111
10.1498   127
10.1998   99
10.2498   101
10.2998   113
10.3498   104
10.3998   92
10.4498   112
10.4998   119
10.5498   104
10.5998   102
10.6498   104
10.6998   113
10.7498   77
10.7998   125
10.8498   96
10.8998   80
10.9498   102
10.9998   107
11.0498   95
11.0998   94
11.1498   89
11.1998   88
11.2498   103
11.2998   94
11.3498   85
11.3998   87
11.4498   97
11.4998   100
11.5498   89
11.5998   92
11.6498   105
11.6998   103
11.7498   103
11.7998   98
11.8498   75
11.8998   80
11.9498   89
11.9998   78
12.0498   92
12.0998   92
12.1498   87
12.1998   109
12.2498   92
12.2998   105
12.3498   115
12.3998   104
12.4498   76
12.4998   90
12.5498   87
12.5998   99
12.6498   83
12.6998   85
12.7498   97
12.7998   88
12.8498   101
12.8998   98
12.9498   80
12.9998   72
13.0498   88
13.0998   85
13.1498   85
13.1998   55
13.2498   90
13.2998   103
13.3498   77
13.3998   73
13.4498   79
13.4998   100
13.5498   81
13.5998   92
13.6498   80
13.6998   91
13.7498   83
13.7998   81
13.8498   79
13.8998   93
13.9498   83
13.9998   79
14.0498   99
14.0998   97
14.1498   61
14.1998   77
14.2498   81
14.2998   84
14.3498   81
14.3998   75
14.4498   81
14.4998   78
14.5498   92
14.5998   83
14.6498   83
14.6998   62
14.7498   100
14.7998   69
14.8498   81
14.8998   80
14.9498   83
14.9998   77
15.0498   71
15.0998   76
15.1498   82
15.1998   86
15.2498   70
15.2998   69
15.3498   94
15.3998   88
15.4498   71
15.4998   91
15.5498   73
15.5998   89
15.6498   66
15.6998   86
15.7498   85
15.7998   94
15.8498   76
15.8998   70
15.9498   70
15.9998   76
16.0498   69
16.0998   92
16.1498   80
16.1998   81
16.2498   89
16.2998   77
16.3498   80
16.3998   89
16.4498   81
16.4998   82
16.5498   90
16.5998   86
16.6498   109
16.6998   79
16.7498   68
16.7998   95
16.8498   82
16.8998   72
16.9498   69
16.9998   84
17.0498   79
17.0998   91
17.1498   91
17.1998   85
17.2498   69
17.2998   90
17.3498   90
17.3998   74
17.4498   85
17.4998   94
17.5498   97
17.5998   97
17.6498   76
17.6998   94
17.7498   76
17.7998   86
17.8498   108
17.8998   92
17.9498   112
17.9998   87
18.0498   95
18.0998   83
18.1498   95
18.1998   90
18.2498   90
18.2998   74
18.3498   103
18.3998   100
18.4498   101
18.4998   96
18.5498   102
18.5998   98
18.6498   93
18.6998   100
18.7498   108
18.7998   89
18.8498   95
18.8998   96
18.9498   102
18.9998   91
19.0498   103
19.0998   107
19.1498   114
19.1998   120
19.2498   107
19.2998   95
19.3498   111
19.3998   101
19.4498   93
19.4998   105
19.5498   104
19.5998   102
19.6498   95
19.6998   101
19.7498   113
19.7998   104
19.8498   104
19.8998   109
19.9498   108
19.9998   113
20.0498   112
20.0996   118
20.1496   133
20.1996   111
20.2496   126
20.2996   98
20.3496   101
20.3996   115
20.4496   130
20.4996   104
20.5496   122
20.5996   124
20.6496   123
20.6996   112
20.7496   109
20.7996   121
20.8496   140
20.8996   123
20.9496   111
20.9996   124
21.0496   122
21.0996   109
21.1496   136
21.1996   143
21.2496   145
21.2996   137
21.3496   168
21.3996   143
21.4496   127
21.4996   150
21.5496   129
21.5996   126
21.6496   121
21.6996   125
21.7496   129
21.7996   138
21.8496   137
21.8996   159
21.9496   155
21.9996   171
22.0496   137
22.0996   144
22.1496   140
22.1996   165
22.2496   152
22.2996   135
22.3496   149
22.3996   149
22.4496   164
22.4996   176
22.5496   157
22.5996   178
22.6496   155
22.6996   213
22.7496   178
22.7996   176
22.8496   179
22.8996   184
22.9496   165
22.9996   178
23.0496   196
23.0996   198
23.1496   203
23.1996   229
23.2496   199
23.2996   206
23.3496   216
23.3996   215
23.4496   239
23.4996   227
23.5496   229
23.5996   205
23.6496   239
23.6996   238
23.7496   263
23.7996   249
23.8496   277
23.8996   252
23.9496   249
23.9996   260
24.0496   296
24.0996   314
24.1496   303
24.1996   286
24.2496   311
24.2996   313
24.3496   289
24.3996   322
24.4496   333
24.4996   327
24.5496   357
24.5996   370
24.6496   359
24.6996   415
24.7496   400
24.7996   400
24.8496   412
24.8996   436
24.9496   448
24.9996   483
25.0496   455
25.0996   465
25.1496   447
25.1996   469
25.2496   492
25.2996   476
25.3496   465
25.3996   498
25.4496   504
25.4996   492
25.5496   532
25.5996   554
25.6496   544
25.6996   540
25.7496   537
25.7996   536
25.8496   504
25.8996   532
25.9496   556
25.9996   523
26.0496   531
26.0996   478
26.1496   504
26.1996   511
26.2496   513
26.2996   516
26.3496   453
26.3996   455
26.4496   429
26.4996   437
26.5496   397
26.5996   432
26.6496   410
26.6996   348
26.7496   359
26.7996   321
26.8496   330
26.8996   349
26.9496   280
26.9996   305
27.0496   290
27.0996   274
27.1496   266
27.1996   281
27.2496   256
27.2996   239
27.3496   252
27.3996   226
27.4496   226
27.4996   217
27.5496   213
27.5996   195
27.6496   196
27.6996   169
27.7496   202
27.7996   179
27.8496   190
27.8996   165
27.9496   173
27.9996   155
28.0496   151
28.0996   138
28.1496   149
28.1996   137
28.2496   138
28.2996   146
28.3496   160
28.3996   125
28.4496   142
28.4996   152
28.5496   137
28.5996   122
28.6496   123
28.6996   105
28.7496   135
28.7996   134
28.8496   104
28.8996   113
28.9496   112
28.9996   121
29.0496   119
29.0996   111
29.1496   110
29.1996   97
29.2496   124
29.2996   93
29.3496   111
29.3996   91
29.4496   109
29.4996   97
29.5496   111
29.5996   119
29.6496   97
29.6996   100
29.7496   110
29.7996   83
29.8496   113
29.8996   92
29.9496   108
29.9996   112
30.0496   101
30.0996   99
30.1496   106
30.1996   103
30.2496   116
30.2996   77
30.3496   93
30.3995   97
30.4494   91
30.4994   97
30.5494   108
30.5994   102
30.6494   99
30.6994   103
30.7494   90
30.7994   84
30.8494   93
30.8994   89
30.9494   98
30.9994   87
31.0494   101
31.0994   81
31.1494   101
31.1994   97
31.2494   82
31.2994   106
31.3494   84
31.3994   107
31.4494   75
31.4994   92
31.5494   107
31.5994   85
31.6494   84
31.6994   75
31.7494   92
31.7994   76
31.8494   99
31.8994   80
31.9494   87
31.9994   77
32.0494   74
32.0994   82
32.1494   87
32.1994   78
32.2494   70
32.2994   74
32.3494   62
32.3994   84
32.4494   79
32.4994   80
32.5494   79
32.5994   90
32.6494   77
32.6994   74
32.7494   105
32.7994   72
32.8494   105
32.8994   67
32.9494   86
32.9994   80
33.0494   82
33.0994   72
33.1494   68
33.1994   76
33.2494   66
33.2994   86
33.3494   75
33.3994   76
33.4494   77
33.4994   76
33.5494   76
33.5994   63
33.6494   68
33.6994   69
33.7494   68
33.7994   62
33.8494   60
33.8994   75
33.9494   58
33.9994   91
34.0494   83
34.0994   62
34.1494   67
34.1994   60
34.2494   65
34.2994   73
34.3494   65
34.3994   65
34.4494   58
34.4994   58
34.5494   65
34.5994   59
34.6494   64
34.6994   63
34.7494   59
34.7994   67
34.8494   72
34.8994   47
34.9494   46
34.9994   64
35.0494   67
35.0994   53
35.1494   54
35.1994   54
35.2494   65
35.2994   68
35.3494   63
35.3994   64
35.4494   71
35.4994   79
35.5494   58
35.5994   67
35.6494   70
35.6994   53
35.7494   76
35.7994   65
35.8494   67
35.8994   64
35.9494   59
35.9994   62
36.0494   61
36.0994   72
36.1494   59
36.1994   50
36.2494   67
36.2994   61
36.3494   62
36.3994   62
36.4494   54
36.4994   60
36.5494   62
36.5994   75
36.6494   61
36.6994   54
36.7494   61
36.7994   60
36.8494   53
36.8994   54
36.9494   65
36.9994   59
37.0494   62
37.0994   46
37.1494   54
37.1994   56
37.2494   58
37.2994   56
37.3494   51
37.3994   58
37.4494   58
37.4994   50
37.5494   68
37.5994   54
37.6494   54
37.6994   46
37.7494   55
37.7994   55
37.8494   53
37.8994   47
37.9494   54
37.9994   55
38.0494   54
38.0994   50
38.1494   62
38.1994   43
38.2494   64
38.2994   56
38.3494   54
38.3994   54
38.4494   56
38.4994   53
38.5494   51
38.5994   59
38.6494   44
38.6994   58
38.7494   48
38.7994   50
38.8494   45
38.8994   49
38.9494   66
38.9994   59
39.0494   55
39.0994   56
39.1494   67
39.1994   57
39.2494   55
39.2994   50
39.3494   51
39.3994   50
39.4494   51
39.4994   60
39.5494   60
39.5994   65
39.6494   49
39.6994   56
39.7494   59
39.7994   61
39.8494   55
39.8994   52
39.9494   48
39.9994   49
40.0494   53
40.0994   39
40.1494   50
40.1994   48
40.2494   58
40.2994   54
40.3494   55
40.3993   41
40.4492   54
40.4992   54
40.5492   69
40.5992   43
40.6492   47
40.6992   51
40.7492   59
40.7992   51
40.8492   53
40.8992   58
40.9492   62
40.9992   67
41.0492   50
41.0992   63
41.1492   69
41.1992   71
41.2492   45
41.2992   67
41.3492   66
41.3992   61
41.4492   70
41.4992   62
41.5492   65
41.5992   61
41.6492   71
41.6992   63
41.7492   75
41.7992   75
41.8492   77
41.8992   73
41.9492   66
41.9992   72
42.0492   78
42.0992   94
42.1492   73
42.1992   81
42.2492   84
42.2992   87
42.3492   86
42.3992   80
42.4492   114
42.4992   97
42.5492   103
42.5992   96
42.6492   104
42.6992   119
42.7492   105
42.7992   94
42.8492   95
42.8992   113
42.9492   104
42.9992   97
43.0492   110
43.0992   103
43.1492   120
43.1992   107
43.2492   96
43.2992   104
43.3492   100
43.3992   86
43.4492   88
43.4992   91
43.5492   99
43.5992   121
43.6492   99
43.6992   99
43.7492   96
43.7992   97
43.8492   89
43.8992   81
43.9492   82
43.9992   100
44.0492   91
44.0992   92
44.1492   87
44.1992   76
44.2492   89
44.2992   87
44.3492   87
44.3992   78
44.4492   64
44.4992   68
44.5492   78
44.5992   73
44.6492   74
44.6992   81
44.7492   59
44.7992   84
44.8492   90
44.8992   90
44.9492   73
44.9992   81
45.0492   69
45.0992   76
45.1492   69
45.1992   79
45.2492   83
45.2992   69
45.3492   85
45.3992   76
45.4492   60
45.4992   88
45.5492   72
45.5992   72
45.6492   70
45.6992   69
45.7492   69
45.7992   63
45.8492   62
45.8992   54
45.9492   64
45.9992   71
46.0492   66
46.0992   62
46.1492   65
46.1992   76
46.2492   56
46.2992   73
46.3492   77
46.3992   66
46.4492   68
46.4992   64
46.5492   70
46.5992   71
46.6492   78
46.6992   57
46.7492   65
46.7992   62
46.8492   58
46.8992   61
46.9492   51
46.9992   62
47.0492   67
47.0992   58
47.1492   60
47.1992   66
47.2492   51
47.2992   58
47.3492   54
47.3992   59
47.4492   65
47.4992   53
47.5492   61
47.5992   40
47.6492   55
47.6992   61
47.7492   66
47.7992   65
47.8492   54
47.8992   49
47.9492   50
47.9992   53
48.0492   48
48.0992   59
48.1492   60
48.1992   49
48.2492   66
48.2992   56
48.3492   47
48.3992   61
48.4492   47
48.4992   52
48.5492   52
48.5992   51
48.6492   54
48.6992   49
48.7492   44
48.7992   45
48.8492   49
48.8992   64
48.9492   70
48.9992   53
49.0492   66
49.0992   43
49.1492   51
49.1992   58
49.2492   43
49.2992   53
49.3492   52
49.3992   67
49.4492   60
49.4992   42
49.5492   56
49.5992   58
49.6492   50
49.6992   57
49.7492   42
49.7992   60
49.8492   60
49.8992   66
49.9492   65
49.9992   53
50.0492   61
50.0992   51
50.1492   49
50.1992   60
50.2492   65
50.2992   44
50.3492   48
50.3991   55
50.4491   55
50.4990   60
50.5490   52
50.5990   66
50.6490   55
50.6990   53
50.7490   63
50.7990   49
50.8490   49
50.8990   52
50.9490   39
50.9990   53
51.0490   51
51.0990   49
51.1490   57
51.1990   51
51.2490   50
51.2990   43
51.3490   47
51.3990   62
51.4490   36
51.4990   52
51.5490   48
51.5990   33
51.6490   49
51.6990   42
51.7490   55
51.7990   62
51.8490   56
51.8990   48
51.9490   61
51.9990   58
52.0490   71
52.0990   65
52.1490   58
52.1990   53
52.2490   51
52.2990   62
52.3490   66
52.3990   55
52.4490   67
52.4990   57
52.5490   54
52.5990   66
52.6490   50
52.6990   60
52.7490   62
52.7990   64
52.8490   48
52.8990   64
52.9490   67
52.9990   52
53.0490   59
53.0990   62
53.1490   56
53.1990   78
53.2490   68
53.2990   56
53.3490   55
53.3990   50
53.4490   49
53.4990   60
53.5490   64
53.5990   72
53.6490   57
53.6990   51
53.7490   47
53.7990   62
53.8490   55
53.8990   55
53.9490   58
53.9990   71
54.0490   53
54.0990   54
54.1490   61
54.1990   57
54.2490   50
54.2990   40
54.3490   54
54.3990   59
54.4490   54
54.4990   50
54.5490   50
54.5990   50
54.6490   65
54.6990   59
54.7490   46
54.7990   52
54.8490   44
54.8990   49
54.9490   45
54.9990   39
55.0490   47
55.0990   59
55.1490   50
55.1990   43
55.2490   46
55.2990   42
55.3490   45
55.3990   36
55.4490   54
55.4990   58
55.5490   61
55.5990   60
55.6490   42
55.6990   43
55.7490   59
55.7990   51
55.8490   54
55.8990   45
55.9490   41
55.9990   48
56.0490   50
56.0990   43
56.1490   42
56.1990   50
56.2490   49
56.2990   57
56.3490   46
56.3990   45
56.4490   53
56.4990   52
56.5490   50
56.5990   53
56.6490   45
56.6990   36
56.7490   52
56.7990   65
56.8490   45
56.8990   40
56.9490   47
56.9990   48
57.0490   39
57.0990   45
57.1490   52
57.1990   47
57.2490   50
57.2990   48
57.3490   52
57.3990   52
57.4490   39
57.4990   47
57.5490   46
57.5990   52
57.6490   42
57.6990   51
57.7490   49
57.7990   33
57.8490   57
57.8990   43
57.9490   44
57.9990   43
58.0490   44
58.0990   41
58.1490   52
58.1990   42
58.2490   42
58.2990   44
58.3490   44
58.3990   48
58.4490   40
58.4990   38
58.5490   45
58.5990   58
58.6490   42
58.6990   41
58.7490   47
58.7990   40
58.8490   36
58.8990   38
58.9490   37
58.9990   34
59.0490   41
59.0990   59
59.1490   42
59.1990   45
59.2490   43
59.2990   35
59.3490   45
59.3990   55
59.4490   40
59.4990   39
59.5490   44
59.5990   51
59.6490   42
59.6990   50
59.7490   47
59.7990   39
59.8490   40
59.8990   34
59.9490   46
59.9990   48
60.0490   28
60.0990   42
60.1490   29
60.1990   44
60.2490   39
60.2990   53
60.3490   41
60.3990   43
60.4489   34
60.4988   33
60.5488   49
60.5988   47
60.6488   43
60.6988   39
60.7488   52
60.7988   42
60.8488   55
60.8988   45
60.9488   47
60.9988   53
61.0488   53
61.0988   39
61.1488   50
61.1988   34
61.2488   51
61.2988   33
61.3488   39
61.3988   48
61.4488   49
61.4988   45
61.5488   33
61.5988   40
61.6488   49
61.6988   58
61.7488   35
61.7988   52
61.8488   63
61.8988   42
61.9488   35
61.9988   51
62.0488   35
62.0988   42
62.1488   34
62.1988   39
62.2488   48
62.2988   49
62.3488   44
62.3988   48
62.4488   55
62.4988   42
62.5488   49
62.5988   47
62.6488   45
62.6988   44
62.7488   45
62.7988   47
62.8488   31
62.8988   43
62.9488   50
62.9988   42
63.0488   38
63.0988   51
63.1488   38
63.1988   55
63.2488   51
63.2988   43
63.3488   39
63.3988   41
63.4488   39
63.4988   42
63.5488   44
63.5988   51
63.6488   50
63.6988   54
63.7488   46
63.7988   41
63.8488   48
63.8988   42
63.9488   46
63.9988   44
64.0488   46
64.0988   38
64.1488   33
64.1988   39
64.2488   45
64.2988   43
64.3488   46
64.3988   48
64.4488   45
64.4988   51
64.5488   32
64.5988   43
64.6488   44
64.6988   30
64.7488   42
64.7988   35
64.8488   48
64.8988   45
64.9488   56
64.9988   45
65.0488   36
65.0988   34
65.1488   39
65.1988   57
65.2488   55
65.2988   41
65.3488   31
65.3988   40
65.4488   32
65.4988   48
65.5488   40
65.5988   40
65.6488   56
65.6988   52
65.7488   46
65.7988   48
65.8488   40
65.8988   39
65.9488   39
65.9988   51
66.0488   36
66.0988   53
66.1488   36
66.1988   41
66.2488   48
66.2988   35
66.3488   40
66.3988   45
66.4488   38
66.4988   38
66.5488   45
66.5988   48
66.6488   43
66.6988   43
66.7488   50
66.7988   47
66.8488   37
66.8988   44
66.9488   47
66.9988   35
67.0488   40
67.0988   40
67.1488   36
67.1988   43
67.2488   44
67.2988   46
67.3488   52
67.3988   33
67.4488   41
67.4988   46
67.5488   42
67.5988   32
67.6488   56
67.6988   41
67.7488   48
67.7988   39
67.8488   41
67.8988   27
67.9488   34
67.9988   39
68.0488   43
68.0988   36
68.1488   36
68.1988   38
68.2488   42
68.2988   44
68.3488   38
68.3988   28
68.4488   30
68.4988   29
68.5488   34
68.5988   32
68.6488   30
68.6988   39
68.7488   34
68.7988   30
68.8488   43
68.8988   38
68.9488   34
68.9988   38
69.0488   36
69.0988   31
69.1488   35
69.1988   34
69.2488   32
69.2988   41
69.3488   45
69.3988   34
69.4488   41
69.4988   38
69.5488   39
69.5988   35
69.6488   35
69.6988   45
69.7488   40
69.7988   28
69.8488   32
69.8988   39
69.9488   36
69.9988   29
70.0488   44
70.0988   30
70.1488   41
70.1988   42
70.2488   31
70.2988   33
70.3488   32
70.3988   36
70.4487   48
70.4987   31
70.5486   44
70.5986   47
70.6486   35
70.6986   29
70.7486   56
70.7986   38
70.8486   41
70.8986   37
70.9486   36
70.9986   39
71.0486   39
71.0986   41
71.1486   30
71.1986   42
71.2486   47
71.2986   39
71.3486   23
71.3986   33
71.4486   30
71.4986   34
71.5486   39
71.5986   28
71.6486   32
71.6986   27
71.7486   32
71.7986   33
71.8486   28
71.8986   45
71.9486   33
71.9986   37
72.0486   50
72.0986   34
72.1486   35
72.1986   36
72.2486   38
72.2986   32
72.3486   43
72.3986   42
72.4486   31
72.4986   30
72.5486   30
72.5986   38
72.6486   39
72.6986   28
72.7486   30
72.7986   31
72.8486   39
72.8986   35
72.9486   32
72.9986   38
73.0486   52
73.0986   30
73.1486   27
73.1986   26
73.2486   38
73.2986   32
73.3486   37
73.3986   28
73.4486   33
73.4986   35
73.5486   34
73.5986   45
73.6486   17
73.6986   35
73.7486   32
73.7986   33
73.8486   27
73.8986   26
73.9486   32
73.9986   32
74.0486   33
74.0986   36
74.1486   33
74.1986   34
74.2486   32
74.2986   43
74.3486   43
74.3986   34
74.4486   35
74.4986   36
74.5486   33
74.5986   40
74.6486   34
74.6986   35
74.7486   24
74.7986   25
74.8486   33
74.8986   37
74.9486   36
74.9986   33
75.0486   33
75.0986   30
75.1486   38
75.1986   40
75.2486   37
75.2986   39
75.3486   46
75.3986   31
75.4486   27
75.4986   35
75.5486   38
75.5986   28
75.6486   23
75.6986   33
75.7486   39
75.7986   29
75.8486   51
75.8986   35
75.9486   33
75.9986   36
76.0486   32
76.0986   33
76.1486   38
76.1986   43
76.2486   43
76.2986   37
76.3486   42
76.3986   25
76.4486   33
76.4986   45
76.5486   29
76.5986   30
76.6486   36
76.6986   30
76.7486   34
76.7986   37
76.8486   38
76.8986   31
76.9486   42
76.9986   45
77.0486   54
77.0986   27
77.1486   25
77.1986   29
77.2486   35
77.2986   31
77.3486   29
77.3986   43
77.4486   40
77.4986   45
77.5486   37
77.5986   35
77.6486   35
77.6986   39
77.7486   41
77.7986   34
77.8486   33
77.8986   27
77.9486   41
77.9986   40
78.0486   42
78.0986   32
78.1486   39
78.1986   51
78.2486   45
78.2986   50
78.3486   39
78.3986   36
78.4486   50
78.4986   46
78.5486   36
78.5986   40
78.6486   33
78.6986   48
78.7486   29
78.7986   43
78.8486   53
78.8986   43
78.9486   47
78.9986   34
79.0486   45
79.0986   41
79.1486   32
79.1986   36
79.2486   47
79.2986   46
79.3486   30
79.3986   39
79.4486   47
79.4986   38
79.5486   39
79.5986   36
79.6486   30
79.6986   30
79.7486   28
79.7986   29
79.8486   52
79.8986   30
79.9486   36
79.9986   38
80.0486   39
80.0986   33
80.1486   40
80.1986   39
80.2486   47
80.2986   32
80.3486   24
80.3986   33
80.4485   36
80.4985   29
80.5484   33
80.5984   48
80.6484   32
80.6984   27
80.7484   35
80.7984   44
80.8484   39
80.8984   35
80.9484   48
80.9984   35
81.0484   42
81.0984   32
81.1484   30
81.1984   34
81.2484   39
81.2984   32
81.3484   43
81.3984   45
81.4484   36
81.4984   40
81.5484   31
81.5984   49
81.6484   32
81.6984   35
81.7484   37
81.7984   40
81.8484   38
81.8984   31
81.9484   37
81.9984   35
82.0484   37
82.0984   28
82.1484   33
82.1984   25
82.2484   23
82.2984   28
82.3484   33
82.3984   39
82.4484   26
82.4984   32
82.5484   39
82.5984   31
82.6484   33
82.6984   27
82.7484   38
82.7984   41
82.8484   40
82.8984   45
82.9484   13
82.9984   42
83.0484   29
83.0984   30
83.1484   26
83.1984   28
83.2484   29
83.2984   38
83.3484   35
83.3984   38
83.4484   26
83.4984   31
83.5484   27
83.5984   32
83.6484   38
83.6984   27
83.7484   38
83.7984   32
83.8484   30
83.8984   32
83.9484   23
83.9984   28
84.0484   32
84.0984   24
84.1484   34
84.1984   27
84.2484   35
84.2984   31
84.3484   32
84.3984   30
84.4484   22
84.4984   29
84.5484   28
84.5984   33
84.6484   22
84.6984   33
84.7484   33
84.7984   36
84.8484   31
84.8984   29
84.9484   22
84.9984   24
85.0484   24
85.0984   35
85.1484   32
85.1984   21
85.2484   33
85.2984   30
85.3484   26
85.3984   31
85.4484   37
85.4984   15
85.5484   36
85.5984   32
85.6484   24
85.6984   30
85.7484   34
85.7984   35
85.8484   27
85.8984   32
85.9484   29
85.9984   25
86.0484   29
86.0984   28
86.1484   24
86.1984   34
86.2484   25
86.2984   28
86.3484   28
86.3984   33
86.4484   22
86.4984   21
86.5484   30
86.5984   26
86.6484   29
86.6984   32
86.7484   34
86.7984   31
86.8484   23
86.8984   34
86.9484   21
86.9984   32
87.0484   30
87.0984   27
87.1484   21
87.1984   33
87.2484   34
87.2984   31
87.3484   21
87.3984   26
87.4484   29
87.4984   34
87.5484   28
87.5984   23
87.6484   30
87.6984   34
87.7484   26
87.7984   19
87.8484   20
87.8984   32
87.9484   23
87.9984   23
88.0484   28
88.0984   21
88.1484   19
88.1984   22
88.2484   34
88.2984   26
88.3484   30
88.3984   26
88.4484   18
88.4984   21
88.5484   28
88.5984   33
88.6484   23
88.6984   37
88.7484   36
88.7984   19
88.8484   31
88.8984   25
88.9484   31
88.9984   25
89.0484   18
89.0984   29
89.1484   19
89.1984   20
89.2484   28
89.2984   36
89.3484   24
89.3984   17
89.4484   37
89.4984   34
89.5484   30
89.5984   20
89.6484   17
89.6984   19
89.7484   26
89.7984   35
89.8484   22
89.8984   17
89.9484   31
89.9984   22
