10.0000   55
10.0498   53
10.0998   50
10.1498   34
10.1998   48
10.2498   48
10.2998   29
10.3498   40
10.3998   42
10.4498   51
10.4998   59
10.5498   46
10.5998   35
10.6498   36
10.6998   40
10.7498   51
10.7998   36
10.8498   45
10.8998   40
10.9498   49
10.9998   45
11.0498   55
11.0998   44
11.1498   41
11.1998   48
11.2498   46
11.2998   41
11.3498   42
11.3998   38
11.4498   59
11.4998   39
11.5498   50
11.5998   52
11.6498   58
11.6998   87
11.7498   101
11.7998   123
11.8498   183
11.8998   203
11.9498   296
11.9998   399
12.0498   496
12.0998   598
12.1498   413
12.1998   253
12.2498   108
12.2998   85
12.3498   74
12.3998   53
12.4498   52
12.4998   37
12.5498   54
12.5998   32
12.6498   47
12.6998   33
12.7498   44
12.7998   44
12.8498   24
12.8998   23
12.9498   36
12.9998   41
13.0498   40
13.0998   30
13.1498   27
13.1998   42
13.2498   32
13.2998   28
13.3498   31
13.3998   32
13.4498   36
13.4998   38
13.5498   41
13.5998   35
13.6498   31
13.6998   35
13.7498   25
13.7998   32
13.8498   32
13.8998   31
13.9498   27
13.9998   28
14.0498   31
14.0998   24
14.1498   32
14.1998   32
14.2498   21
14.2998   33
14.3498   28
14.3998   37
14.4498   26
14.4998   27
14.5498   30
14.5998   32
14.6498   37
14.6998   31
14.7498   30
14.7998   34
14.8498   32
14.8998   38
14.9498   28
14.9998   27
15.0498   25
15.0998   24
15.1498   30
15.1998   27
15.2498   33
15.2998   24
15.3498   29
15.3998   17
15.4498   20
15.4998   24
15.5498   16
15.5998   31
15.6498   25
15.6998   21
15.7498   26
15.7998   20
15.8498   27
15.8998   28
15.9498   22
15.9998   28
16.0498   31
16.0998   16
16.1498   29
16.1998   28
16.2498   42
16.2998   28
16.3498   29
16.3998   35
16.4498   38
16.4998   30
16.5498   36
16.5998   34
16.6498   41
16.6998   42
16.7498   37
16.7998   42
16.8498   90
16.8998   138
16.9498   194
16.9998   287
17.0498   373
17.0998   414
17.1498   285
17.1998   137
17.2498   57
17.2998   49
17.3498   43
17.3998   27
17.4498   37
17.4998   35
17.5498   24
17.5998   28
17.6498   24
17.6998   27
17.7498   33
17.7998   31
17.8498   20
17.8998   18
17.9498   21
17.9998   32
18.0498   22
18.0998   19
18.1498   26
18.1998   28
18.2498   23
18.2998   21
18.3498   24
18.3998   20
18.4498   23
18.4998   19
18.5498   15
18.5998   23
18.6498   13
18.6998   24
18.7498   26
18.7998   11
18.8498   27
18.8998   24
18.9498   17
18.9998   20
19.0498   21
19.0998   24
19.1498   21
19.1998   24
19.2498   19
19.2998   19
19.3498   22
19.3998   15
19.4498   25
19.4998   23
19.5498   17
19.5998   18
19.6498   25
19.6998   16
19.7498   16
19.7998   26
19.8498   21
19.8998   18
19.9498   21
19.9996   16
20.0496   26
20.0996   23
20.1496   24
20.1996   10
20.2496   19
20.2996   20
20.3496   21
20.3996   13
20.4496   14
20.4996   8
20.5496   23
20.5996   26
20.6496   17
20.6996   18
20.7496   19
20.7996   17
20.8496   18
20.8996   14
20.9496   14
20.9996   14
21.0496   18
21.0996   19
21.1496   18
21.1996   15
21.2496   15
21.2996   22
21.3496   17
21.3996   11
21.4496   15
21.4996   18
21.5496   16
21.5996   14
21.6496   15
21.6996   14
21.7496   15
21.7996   19
21.8496   17
21.8996   14
21.9496   17
21.9996   19
22.0496   20
22.0996   22
22.1496   15
22.1996   20
22.2496   11
22.2996   20
22.3496   16
22.3996   13
22.4496   16
22.4996   17
22.5496   15
22.5996   14
22.6496   16
22.6996   14
22.7496   17
22.7996   14
22.8496   15
22.8996   15
22.9496   13
22.9996   18
23.0496   14
23.0996   11
23.1496   21
23.1996   15
23.2496   20
23.2996   12
23.3496   13
23.3996   13
23.4496   14
23.4996   19
23.5496   14
23.5996   17
23.6496   23
23.6996   13
23.7496   16
23.7996   19
23.8496   23
23.8996   21
23.9496   12
23.9996   25
24.0496   29
24.0996   29
24.1496   45
24.1996   65
24.2496   62
24.2996   45
24.3496   34
24.3996   15
24.4496   22
24.4996   21
24.5496   10
24.5996   19
24.6496   19
24.6996   12
24.7496   10
24.7996   15
24.8496   9
24.8996   20
24.9496   7
24.9996   18
25.0496   14
25.0996   18
25.1496   17
25.1996   16
25.2496   13
25.2996   16
25.3496   19
25.3996   13
25.4496   15
25.4996   9
25.5496   13
25.5996   12
25.6496   23
25.6996   18
25.7496   19
25.7996   13
25.8496   15
25.8996   16
25.9496   20
25.9996   17
26.0496   21
26.0996   24
26.1496   17
26.1996   16
26.2496   14
26.2996   30
26.3496   27
26.3996   17
26.4496   27
26.4996   35
26.5496   19
26.5996   37
26.6496   35
26.6996   37
26.7496   37
26.7996   53
26.8496   71
26.8996   120
26.9496   215
26.9996   396
27.0496   639
27.0996   761
27.1496   685
27.1996   372
27.2496   157
27.2996   105
27.3496   63
27.3996   45
27.4496   34
27.4996   32
27.5496   29
27.5996   20
27.6496   22
27.6996   32
27.7496   23
27.7996   27
27.8496   15
27.8996   19
27.9496   14
27.9996   13
28.0496   12
28.0996   15
28.1496   19
28.1996   12
28.2496   15
28.2996   16
28.3496   12
28.3996   17
28.4496   10
28.4996   11
28.5496   15
28.5996   13
28.6496   12
28.6996   10
28.7496   10
28.7996   11
28.8496   15
28.8996   15
28.9496   18
28.9996   15
29.0496   9
29.0996   11
29.1496   19
29.1996   18
29.2496   15
29.2996   13
29.3496   9
29.3996   14
29.4496   9
29.4996   13
29.5496   14
29.5996   15
29.6496   9
29.6996   12
29.7496   7
29.7996   16
29.8496   11
29.8996   15
29.9496   10
29.9994   11
30.0494   17
30.0994   9
30.1494   8
30.1994   21
30.2494   11
30.2994   13
30.3494   11
30.3994   13
30.4494   14
30.4994   4
30.5494   20
30.5994   10
30.6494   15
30.6994   17
30.7494   25
30.7994   35
30.8494   43
30.8994   29
30.9494   22
30.9994   22
31.0494   14
31.0994   7
31.1494   10
31.1994   16
31.2494   8
31.2994   21
31.3494   12
31.3994   17
31.4494   12
31.4994   6
31.5494   10
31.5994   13
31.6494   7
31.6994   12
31.7494   10
31.7994   14
31.8494   13
31.8994   15
31.9494   7
31.9994   8
32.0494   12
32.0994   13
32.1494   13
32.1994   12
32.2494   18
32.2994   17
32.3494   11
32.3994   12
32.4494   12
32.4994   6
32.5494   10
32.5994   14
32.6494   17
32.6994   11
32.7494   10
32.7994   12
32.8494   14
32.8994   13
32.9494   16
32.9994   22
33.0494   17
33.0994   20
33.1494   46
33.1994   77
33.2494   113
33.2994   97
33.3494   56
33.3994   25
33.4494   17
33.4994   14
33.5494   21
33.5994   14
33.6494   17
33.6994   14
33.7494   18
33.7994   16
33.8494   14
33.8994   24
33.9494   11
33.9994   29
34.0494   19
34.0994   26
34.1494   31
34.1994   44
34.2494   44
34.2994   77
34.3494   157
34.3994   261
34.4494   312
34.4994   243
34.5494   172
34.5994   97
34.6494   65
34.6994   40
34.7494   25
34.7994   34
34.8494   33
34.8994   26
34.9494   31
34.9994   38
35.0494   27
35.0994   43
35.1494   43
35.1994   59
35.2494   97
35.2994   214
35.3494   352
35.3994   654
35.4494   749
35.4994   591
35.5494   334
35.5994   183
35.6494   73
35.6994   76
35.7494   64
35.7994   60
35.8494   46
35.8994   32
35.9494   20
35.9994   20
36.0494   30
36.0994   17
36.1494   16
36.1994   21
36.2494   10
36.2994   19
36.3494   11
36.3994   21
36.4494   16
36.4994   24
36.5494   46
36.5994   35
36.6494   33
36.6994   43
36.7494   26
36.7994   21
36.8494   14
36.8994   18
36.9494   9
36.9994   13
37.0494   10
37.0994   18
37.1494   8
37.1994   13
37.2494   12
37.2994   9
37.3494   14
37.3994   7
37.4494   10
37.4994   13
37.5494   13
37.5994   11
37.6494   12
37.6994   15
37.7494   12
37.7994   10
37.8494   9
37.8994   19
37.9494   11
37.9994   17
38.0494   14
38.0994   7
38.1494   14
38.1994   12
38.2494   17
38.2994   19
38.3494   10
38.3994   25
38.4494   29
38.4994   26
38.5494   45
38.5994   63
38.6494   80
38.6994   84
38.7494   52
38.7994   22
38.8494   17
38.8994   25
38.9494   21
38.9994   17
39.0494   15
39.0994   21
39.1494   20
39.1994   23
39.2494   23
39.2994   17
39.3494   40
39.3994   57
39.4494   84
39.4994   184
39.5494   246
39.5994   176
39.6494   127
39.6994   70
39.7494   29
39.7994   22
39.8494   15
39.8994   12
39.9494   10
39.9993   7
40.0492   12
40.0992   19
40.1492   11
40.1992   12
40.2492   12
40.2992   15
40.3492   13
40.3992   12
40.4492   19
40.4992   8
40.5492   16
40.5992   8
40.6492   10
40.6992   9
40.7492   12
40.7992   12
40.8492   15
40.8992   29
40.9492   19
40.9992   33
41.0492   18
41.0992   15
41.1492   3
41.1992   11
41.2492   8
41.2992   15
41.3492   10
41.3992   6
41.4492   10
41.4992   8
41.5492   9
41.5992   12
41.6492   11
41.6992   16
41.7492   7
41.7992   7
41.8492   7
41.8992   9
41.9492   11
41.9992   8
42.0492   7
42.0992   5
42.1492   9
42.1992   16
42.2492   11
42.2992   3
42.3492   7
42.3992   12
42.4492   4
42.4992   11
42.5492   10
42.5992   6
42.6492   11
42.6992   12
42.7492   10
42.7992   7
42.8492   10
42.8992   13
42.9492   16
42.9992   15
43.0492   11
43.0992   23
43.1492   21
43.1992   27
43.2492   63
43.2992   100
43.3492   106
43.3992   67
43.4492   55
43.4992   36
43.5492   19
43.5992   14
43.6492   17
43.6992   9
43.7492   17
43.7992   17
43.8492   13
43.8992   15
43.9492   10
43.9992   6
44.0492   12
44.0992   16
44.1492   22
44.1992   38
44.2492   51
44.2992   69
44.3492   48
44.3992   43
44.4492   39
44.4992   18
44.5492   21
44.5992   15
44.6492   9
44.6992   11
44.7492   10
44.7992   13
44.8492   10
44.8992   15
44.9492   8
44.9992   10
45.0492   4
45.0992   12
45.1492   16
45.1992   13
45.2492   8
45.2992   11
45.3492   10
45.3992   15
45.4492   5
45.4992   8
45.5492   8
45.5992   13
45.6492   14
45.6992   6
45.7492   9
45.7992   7
45.8492   10
45.8992   12
45.9492   8
45.9992   11
46.0492   15
46.0992   13
46.1492   14
46.1992   12
46.2492   8
46.2992   13
46.3492   13
46.3992   16
46.4492   20
46.4992   18
46.5492   24
46.5992   34
46.6492   42
46.6992   55
46.7492   122
46.7992   217
46.8492   282
46.8992   226
46.9492   184
46.9992   135
47.0492   82
47.0992   39
47.1492   14
47.1992   20
47.2492   21
47.2992   17
47.3492   11
47.3992   11
47.4492   6
47.4992   16
47.5492   9
47.5992   10
47.6492   5
47.6992   10
47.7492   12
47.7992   11
47.8492   7
47.8992   7
47.9492   12
47.9992   7
48.0492   7
48.0992   7
48.1492   9
48.1992   11
48.2492   8
48.2992   4
48.3492   9
48.3992   7
48.4492   8
48.4992   11
48.5492   3
48.5992   10
48.6492   8
48.6992   14
48.7492   7
48.7992   15
48.8492   4
48.8992   7
48.9492   9
48.9992   10
49.0492   7
49.0992   5
49.1492   6
49.1992   10
49.2492   11
49.2992   21
49.3492   29
49.3992   33
49.4492   56
49.4992   42
49.5492   49
49.5992   43
49.6492   16
49.6992   26
49.7492   16
49.7992   9
49.8492   5
49.8992   13
49.9491   8
49.9990   7
50.0490   6
50.0990   11
50.1490   9
50.1990   9
50.2490   11
50.2990   8
50.3490   8
50.3990   9
50.4490   10
50.4990   10
50.5490   9
50.5990   11
50.6490   10
50.6990   6
50.7490   8
50.7990   9
50.8490   11
50.8990   9
50.9490   13
50.9990   7
51.0490   9
51.0990   11
51.1490   14
51.1990   15
51.2490   9
51.2990   9
51.3490   8
51.3990   5
51.4490   9
51.4990   11
51.5490   5
51.5990   10
51.6490   8
51.6990   13
51.7490   4
51.7990   13
51.8490   7
51.8990   5
51.9490   8
51.9990   7
52.0490   4
52.0990   20
52.1490   16
52.1990   20
52.2490   12
52.2990   10
52.3490   20
52.3990   21
52.4490   25
52.4990   51
52.5490   88
52.5990   116
52.6490   156
52.6990   137
52.7490   107
52.7990   94
52.8490   77
52.8990   31
52.9490   17
52.9990   18
53.0490   22
53.0990   19
53.1490   20
53.1990   21
53.2490   39
53.2990   48
53.3490   88
53.3990   73
53.4490   47
53.4990   46
53.5490   40
53.5990   22
53.6490   16
53.6990   12
53.7490   12
53.7990   8
53.8490   9
53.8990   11
53.9490   12
53.9990   10
54.0490   21
54.0990   35
54.1490   51
54.1990   28
54.2490   27
54.2990   24
54.3490   23
54.3990   8
54.4490   6
54.4990   10
54.5490   10
54.5990   7
54.6490   15
54.6990   14
54.7490   14
54.7990   11
54.8490   4
54.8990   3
54.9490   13
54.9990   12
55.0490   11
55.0990   12
55.1490   13
55.1990   12
55.2490   5
55.2990   11
55.3490   8
55.3990   14
55.4490   17
55.4990   13
55.5490   6
55.5990   13
55.6490   22
55.6990   14
55.7490   20
55.7990   21
55.8490   13
55.8990   20
55.9490   10
55.9990   25
56.0490   23
56.0990   28
56.1490   41
56.1990   38
56.2490   75
56.2990   113
56.3490   255
56.3990   405
56.4490   360
56.4990   244
56.5490   238
56.5990   170
56.6490   107
56.6990   63
56.7490   35
56.7990   24
56.8490   14
56.8990   22
56.9490   13
56.9990   21
57.0490   13
57.0990   10
57.1490   11
57.1990   14
57.2490   15
57.2990   8
57.3490   14
57.3990   17
57.4490   17
57.4990   10
57.5490   18
57.5990   14
57.6490   15
57.6990   12
57.7490   6
57.7990   18
57.8490   11
57.8990   7
57.9490   7
57.9990   12
58.0490   6
58.0990   5
58.1490   7
58.1990   6
58.2490   9
58.2990   4
58.3490   13
58.3990   6
58.4490   10
58.4990   6
58.5490   7
58.5990   5
58.6490   8
58.6990   10
58.7490   10
58.7990   9
58.8490   6
58.8990   2
58.9490   9
58.9990   6
59.0490   8
59.0990   11
59.1490   3
59.1990   6
59.2490   8
59.2990   8
59.3490   10
59.3990   7
59.4490   12
59.4990   7
59.5490   6
59.5990   8
59.6490   11
59.6990   10
59.7490   5
59.7990   8
59.8490   8
59.8989   10
59.9489   9
59.9988   15
60.0488   6
60.0988   6
60.1488   7
60.1988   11
60.2488   6
60.2988   6
60.3488   7
60.3988   9
60.4488   6
60.4988   11
60.5488   10
60.5988   8
60.6488   6
60.6988   9
60.7488   3
60.7988   13
60.8488   10
60.8988   9
60.9488   5
60.9988   6
61.0488   17
61.0988   17
61.1488   22
61.1988   33
61.2488   58
61.2988   96
61.3488   94
61.3988   75
61.4488   69
61.4988   61
61.5488   34
61.5988   19
61.6488   15
61.6988   17
61.7488   4
61.7988   7
61.8488   9
61.8988   15
61.9488   8
61.9988   12
62.0488   20
62.0988   23
62.1488   28
62.1988   52
62.2488   46
62.2988   32
62.3488   27
62.3988   28
62.4488   25
62.4988   36
62.5488   24
62.5988   16
62.6488   34
62.6988   38
62.7488   35
62.7988   27
62.8488   31
62.8988   35
62.9488   69
62.9988   64
63.0488   43
63.0988   48
63.1488   28
63.1988   19
63.2488   25
63.2988   18
63.3488   16
63.3988   15
63.4488   13
63.4988   13
63.5488   16
63.5988   18
63.6488   17
63.6988   13
63.7488   9
63.7988   9
63.8488   7
63.8988   10
63.9488   17
63.9988   14
64.0488   28
64.0988   39
64.1488   42
64.1988   34
64.2488   41
64.2988   44
64.3488   57
64.3988   40
64.4488   25
64.4988   19
64.5488   18
64.5988   21
64.6488   18
64.6988   17
64.7488   28
64.7988   27
64.8488   29
64.8988   67
64.9488   116
64.9988   158
65.0488   141
65.0988   101
65.1488   99
65.1988   100
65.2488   66
65.2988   25
65.3488   23
65.3988   19
65.4488   11
65.4988   12
65.5488   10
65.5988   10
65.6488   9
65.6988   7
65.7488   10
65.7988   10
65.8488   14
65.8988   6
65.9488   8
65.9988   7
66.0488   9
66.0988   10
66.1488   3
66.1988   3
66.2488   9
66.2988   5
66.3488   11
66.3988   6
66.4488   11
66.4988   6
66.5488   6
66.5988   5
66.6488   13
66.6988   12
66.7488   6
66.7988   9
66.8488   11
66.8988   8
66.9488   7
66.9988   9
67.0488   8
67.0988   7
67.1488   8
67.1988   9
67.2488   7
67.2988   12
67.3488   8
67.3988   10
67.4488   7
67.4988   6
67.5488   6
67.5988   13
67.6488   5
67.6988   9
67.7488   10
67.7988   14
67.8488   15
67.8988   10
67.9488   13
67.9988   16
68.0488   25
68.0988   27
68.1488   48
68.1988   82
68.2488   67
68.2988   51
68.3488   55
68.3988   79
68.4488   77
68.4988   71
68.5488   46
68.5988   44
68.6488   38
68.6988   27
68.7488   21
68.7988   18
68.8488   9
68.8988   15
68.9488   9
68.9988   5
69.0488   9
69.0988   7
69.1488   7
69.1988   3
69.2488   7
69.2988   7
69.3488   5
69.3988   11
69.4488   9
69.4988   9
69.5488   7
69.5988   9
69.6488   9
69.6988   4
69.7488   3
69.7988   5
69.8488   8
69.8987   3
69.9487   4
69.9986   6
70.0486   8
70.0986   7
70.1486   7
70.1986   2
70.2486   2
70.2986   12
70.3486   7
70.3986   8
70.4486   4
70.4986   6
70.5486   8
70.5986   8
70.6486   5
70.6986   9
70.7486   4
70.7986   4
70.8486   8
70.8986   11
70.9486   8
70.9986   5
71.0486   4
71.0986   8
71.1486   7
71.1986   7
71.2486   7
71.2986   2
71.3486   3
71.3986   9
71.4486   8
71.4986   4
71.5486   3
71.5986   10
71.6486   9
71.6986   5
71.7486   5
71.7986   9
71.8486   14
71.8986   13
71.9486   20
71.9986   20
72.0486   26
72.0986   29
72.1486   55
72.1986   55
72.2486   37
72.2986   38
72.3486   29
72.3986   24
72.4486   25
72.4986   12
72.5486   10
72.5986   8
72.6486   9
72.6986   5
72.7486   9
72.7986   8
72.8486   13
72.8986   11
72.9486   14
72.9986   10
73.0486   14
73.0986   7
73.1486   13
73.1986   12
73.2486   14
73.2986   7
73.3486   9
73.3986   13
73.4486   23
73.4986   26
73.5486   17
73.5986   15
73.6486   20
73.6986   15
73.7486   13
73.7986   9
73.8486   3
73.8986   8
73.9486   15
73.9986   4
74.0486   8
74.0986   5
74.1486   7
74.1986   7
74.2486   4
74.2986   2
74.3486   6
74.3986   4
74.4486   3
74.4986   8
74.5486   9
74.5986   9
74.6486   5
74.6986   12
74.7486   11
74.7986   10
74.8486   12
74.8986   8
74.9486   13
74.9986   17
75.0486   12
75.0986   13
75.1486   10
75.1986   4
75.2486   5
75.2986   6
75.3486   10
75.3986   6
75.4486   11
75.4986   10
75.5486   15
75.5986   5
75.6486   7
75.6986   7
75.7486   7
75.7986   6
75.8486   10
75.8986   6
75.9486   2
75.9986   5
76.0486   4
76.0986   2
76.1486   5
76.1986   6
76.2486   7
76.2986   5
76.3486   4
76.3986   8
76.4486   5
76.4986   5
76.5486   3
76.5986   5
76.6486   3
76.6986   9
76.7486   7
76.7986   7
76.8486   4
76.8986   9
76.9486   4
76.9986   6
77.0486   11
77.0986   5
77.1486   5
77.1986   4
77.2486   3
77.2986   8
77.3486   6
77.3986   6
77.4486   10
77.4986   7
77.5486   13
77.5986   18
77.6486   15
77.6986   6
77.7486   18
77.7986   10
77.8486   13
77.8986   9
77.9486   9
77.9986   11
78.0486   20
78.0986   32
78.1486   28
78.1986   42
78.2486   34
78.2986   23
78.3486   20
78.3986   24
78.4486   18
78.4986   17
78.5486   17
78.5986   14
78.6486   21
78.6986   19
78.7486   11
78.7986   24
78.8486   22
78.8986   18
78.9486   22
78.9986   12
79.0486   13
79.0986   10
79.1486   14
79.1986   6
79.2486   6
79.2986   5
79.3486   6
79.3986   6
79.4486   6
79.4986   3
79.5486   4
79.5986   3
79.6486   5
79.6986   6
79.7486   6
79.7986   6
79.8485   4
79.8985   8
79.9484   5
79.9984   3
80.0484   9
80.0984   1
80.1484   4
80.1984   5
80.2484   9
80.2984   3
80.3484   5
80.3984   14
80.4484   2
80.4984   10
80.5484   6
80.5984   18
80.6484   26
80.6984   31
80.7484   29
80.7984   15
80.8484   14
80.8984   13
80.9484   11
80.9984   14
81.0484   9
81.0984   6
81.1484   6
81.1984   8
81.2484   2
81.2984   6
81.3484   6
81.3984   5
81.4484   4
81.4984   5
81.5484   3
81.5984   4
81.6484   5
81.6984   3
81.7484   6
81.7984   6
81.8484   2
81.8984   1
81.9484   4
81.9984   4
82.0484   4
82.0984   9
82.1484   2
82.1984   4
82.2484   5
82.2984   4
82.3484   15
82.3984   10
82.4484   14
82.4984   18
82.5484   14
82.5984   7
82.6484   8
82.6984   12
82.7484   9
82.7984   11
82.8484   12
82.8984   11
82.9484   9
82.9984   10
83.0484   5
83.0984   6
83.1484   5
83.1984   7
83.2484   8
83.2984   6
83.3484   4
83.3984   5
83.4484   4
83.4984   7
83.5484   11
83.5984   5
83.6484   9
83.6984   10
83.7484   13
83.7984   10
83.8484   15
83.8984   6
83.9484   16
83.9984   15
84.0484   15
84.0984   13
84.1484   11
84.1984   9
84.2484   14
84.2984   9
84.3484   5
84.3984   10
84.4484   5
84.4984   7
84.5484   10
84.5984   6
84.6484   9
84.6984   11
84.7484   13
84.7984   13
84.8484   26
84.8984   35
84.9484   57
84.9984   36
85.0484   19
85.0984   17
85.1484   29
85.1984   31
85.2484   21
85.2984   10
85.3484   4
85.3984   7
85.4484   8
85.4984   7
85.5484   5
85.5984   11
85.6484   5
85.6984   8
85.7484   11
85.7984   10
85.8484   10
85.8984   7
85.9484   8
85.9984   5
86.0484   5
86.0984   6
86.1484   6
86.1984   6
86.2484   7
86.2984   6
86.3484   6
86.3984   3
86.4484   5
86.4984   6
86.5484   9
86.5984   8
86.6484   3
86.6984   8
86.7484   7
86.7984   2
86.8484   8
86.8984   8
86.9484   7
86.9984   4
87.0484   2
87.0984   4
87.1484   4
87.1984   8
87.2484   9
87.2984   7
87.3484   7
87.3984   6
87.4484   8
87.4984   5
87.5484   8
87.5984   4
87.6484   5
87.6984   8
87.7484   4
87.7984   4
87.8484   11
87.8984   8
87.9484   4
87.9984   6
88.0484   2
88.0984   3
88.1484   3
88.1984   4
88.2484   5
88.2984   9
88.3484   6
88.3984   4
88.4484   5
88.4984   6
88.5484   8
88.5984   8
88.6484   12
88.6984   8
88.7484   2
88.7984   13
88.8484   10
88.8984   12
88.9484   13
88.9984   14
89.0484   3
89.0984   6
89.1484   8
89.1984   6
89.2484   7
89.2984   6
89.3484   5
89.3984   3
89.4484   8
89.4984   6
89.5484   2
89.5984   2
89.6484   6
89.6984   3
89.7484   3
89.7983   3
89.8483   8
89.8983   6
89.9482   5
89.9982   6
